  2.9127697e-002
  9.6074356e-002
  1.4084943e-001
  7.9927685e-002
 -5.2312996e-002
 -1.1602094e-001
 -3.6761417e-002
  7.8216248e-002
  7.2303950e-002
 -3.8696045e-002
 -8.8220294e-002
 -7.5021529e-003
  7.5732343e-002
  3.9900783e-002
 -4.6005590e-002
 -3.9453371e-002
  5.1726812e-002
  8.7733560e-002
  1.5096702e-002
 -5.8266668e-002
 -3.3738069e-002
  3.5106654e-002
  3.7554652e-002
 -2.3049367e-002
 -4.5271050e-002
  5.2852133e-003
  4.5534856e-002
  1.2286156e-002
 -3.7885921e-002
 -2.5624938e-002
  2.0317216e-002
  1.5413155e-002
 -3.4762720e-002
 -4.3491722e-002
  6.9157353e-003
  2.9700180e-002
 -2.6233174e-002
 -9.8713862e-002
 -1.1770149e-001
 -9.0497200e-002
 -1.5590474e-002
  1.8648151e-001
  5.3600566e-001
  8.4396784e-001
  8.4463794e-001
  4.9672218e-001
  5.2594148e-002
 -2.0269242e-001
 -2.0783177e-001
 -9.9265996e-002
 -1.4905175e-002
  1.3845212e-002
  2.1653087e-002
  3.6049404e-002
  5.3416184e-002
  5.5552972e-002
  3.5572597e-002
  9.6140389e-003
  1.3844901e-003
  1.6553842e-002
  3.9468715e-002
  5.3175343e-002
  5.4687246e-002
  5.3040791e-002
  5.9127619e-002
  7.4570642e-002
  8.8997853e-002
  9.6380130e-002
  1.1097834e-001
  1.4894387e-001
  1.9606288e-001
  2.2153219e-001
  2.2704201e-001
  2.4671547e-001
  2.8740047e-001
  3.1018501e-001
  2.9342856e-001
  2.7260087e-001
  2.8412768e-001
  3.0591458e-001
  2.9393973e-001
  2.4889008e-001
  2.0322160e-001
  1.6531811e-001
  1.2183166e-001
  7.8582546e-002
  5.3770822e-002
  4.0770366e-002
  1.9042914e-002
 -5.9653430e-003
 -1.2559396e-002
 -4.7784355e-003
 -6.1104563e-003
 -1.6772912e-002
 -1.5495608e-002
 -1.4386888e-003
  3.0578613e-003
 -6.8595384e-003
 -9.8593297e-003
  4.1493429e-003
  1.7917892e-002
  1.6409975e-002
  8.6212929e-003
  1.0608534e-002
  2.3067345e-002
  3.3282638e-002
  3.0580632e-002
  1.7329974e-002
  7.6300903e-003
  1.0519972e-002
  1.5443527e-002
  8.0217776e-003
 -2.0089610e-003
  6.4661153e-003
  2.3511315e-002
  1.3531370e-002
 -2.5414876e-002
 -4.7443878e-002
 -2.6383144e-002
  2.0272091e-003
 -2.8009194e-003
 -2.3797070e-002
 -2.1248854e-002
  2.6952210e-004
  6.8994113e-003
 -3.7704910e-003
 -5.3705173e-003
  6.0900529e-003
  9.5605430e-003
  1.4547170e-003
 -1.0834172e-003
  2.7257233e-003
 -4.7616292e-003
 -2.3440360e-002
 -3.1347673e-002
 -2.0526359e-002
 -8.2645622e-003
 -7.9471473e-003
 -1.2252675e-002
 -9.9702586e-003
 -1.9291675e-003
  2.8310117e-003
 -3.4304674e-003
 -1.8077459e-002
 -2.2241694e-002
  3.1752943e-003
  4.6732012e-002
  7.0239282e-002
  5.6321268e-002
  3.1255282e-002
  2.4700458e-002
  3.1016306e-002
  3.1218759e-002
  2.8048275e-002
  3.2131441e-002
  3.4024059e-002
  1.8998270e-002
 -5.9458138e-003
 -2.4924030e-002
 -3.6878173e-002
 -4.4102446e-002
 -3.7344961e-002
 -1.7111470e-002
 -8.1128419e-003
 -2.4459082e-002
 -4.1562633e-002
 -3.3572143e-002
 -1.9760434e-002
 -3.9695379e-002
 -9.2357106e-002
 -1.2292878e-001
 -5.6384620e-002
  1.6257864e-001
  5.1206568e-001
  8.3492501e-001
  8.9550760e-001
  5.8866023e-001
  9.5470810e-002
 -2.4586669e-001
 -2.5709499e-001
 -6.8236449e-002
  6.5745460e-002
  4.2956439e-002
 -3.2061206e-002
 -3.2533661e-002
  3.0191977e-002
  5.4761923e-002
  6.7764098e-003
 -3.8641070e-002
 -1.5439055e-002
  3.6182167e-002
  3.8325599e-002
 -1.8837077e-004
 -3.5602016e-004
  5.7591151e-002
  1.0280325e-001
  8.9502491e-002
  6.6467740e-002
  9.0659293e-002
  1.3892599e-001
  1.6242664e-001
  1.7471615e-001
  2.1661268e-001
  2.7021147e-001
  2.8274858e-001
  2.5841056e-001
  2.5470341e-001
  2.9015353e-001
  3.2002155e-001
  3.1087055e-001
  2.8238799e-001
  2.6018675e-001
  2.3547713e-001
  1.9409731e-001
  1.4939400e-001
  1.2060577e-001
  1.0088067e-001
  6.9386395e-002
  2.4155879e-002
 -1.3278351e-002
 -2.2890785e-002
 -7.9908651e-003
  8.6556863e-003
  9.5572077e-003
 -5.1408676e-004
 -7.8590771e-003
 -1.2275853e-002
 -1.9992359e-002
 -2.1569845e-002
 -3.8122989e-003
  1.8015147e-002
  1.3685227e-002
 -1.1676334e-002
 -1.9075959e-002
  1.9995353e-003
  1.5530710e-002
  1.6304524e-003
 -8.9253852e-003
  8.0061252e-003
  2.3116516e-002
  4.3347497e-003
 -2.4276912e-002
 -2.1991209e-002
  2.5465066e-004
  2.4403730e-003
 -1.5098859e-002
 -1.7884625e-002
 -6.2256582e-004
  7.3497527e-003
 -3.8646454e-003
 -1.2693170e-002
 -1.0652749e-002
 -1.6164128e-002
 -3.5058204e-002
 -4.3068884e-002
 -2.2010214e-002
  1.0862147e-002
  2.3235746e-002
  4.1811044e-003
 -2.7123310e-002
 -4.1866282e-002
 -2.9713128e-002
 -9.3319141e-003
 -5.1406605e-003
 -1.4437208e-002
 -1.3649443e-002
  1.9920959e-003
  1.0538007e-002
  2.5026886e-003
 -2.0794352e-003
  9.1431927e-003
  1.6923614e-002
  4.8217329e-003
 -1.0574375e-002
 -8.3318966e-003
  3.2390335e-003
  6.9303690e-003
  6.3175076e-003
  9.3683603e-003
  6.8729194e-003
 -5.4766273e-003
 -8.0290272e-003
  1.0782572e-002
  2.7813383e-002
  2.2201226e-002
  1.4711096e-002
  3.3998909e-002
  6.4986056e-002
  7.1161619e-002
  5.3186868e-002
  4.3899984e-002
  5.3571901e-002
  5.9902596e-002
  5.0434812e-002
  3.9646105e-002
  4.0182371e-002
  4.4331215e-002
  3.9242363e-002
  2.2472705e-002
  1.0786941e-003
 -1.2662544e-002
 -9.3062027e-003
  4.1535658e-003
  8.4092223e-003
 -2.1685535e-003
 -1.3623779e-002
 -2.2039300e-002
 -4.5834167e-002
 -8.8382180e-002
 -1.0402305e-001
 -2.1680643e-002
  1.9865941e-001
  5.2273447e-001
  8.2451972e-001
  9.2319713e-001
  7.1035336e-001
  2.8439988e-001
 -8.7733472e-002
 -2.0169365e-001
 -9.5740731e-002
  3.1880976e-002
  5.3028099e-002
  6.1477814e-003
 -1.1946136e-002
  2.3640868e-002
  6.3294403e-002
  6.3359877e-002
  3.4093971e-002
  1.7147222e-002
  3.3861587e-002
  6.2622969e-002
  7.0119077e-002
  5.6858373e-002
  5.2364769e-002
  6.7495378e-002
  8.2069090e-002
  8.7321183e-002
  1.0465616e-001
  1.4354386e-001
  1.7629199e-001
  1.8223836e-001
  1.8580880e-001
  2.1776359e-001
  2.6424456e-001
  2.8979556e-001
  2.9063587e-001
  2.8905499e-001
  2.9059800e-001
  2.8298368e-001
  2.6734805e-001
  2.5659292e-001
  2.4780584e-001
  2.2474606e-001
  1.8504004e-001
  1.4333338e-001
  1.1130936e-001
  9.0139997e-002
  7.4854805e-002
  5.4503924e-002
  2.1502861e-002
 -9.1367956e-003
 -1.0465549e-002
  1.4161806e-002
  2.5763396e-002
  4.5189360e-003
 -1.8629700e-002
 -9.2279012e-003
  1.9442504e-002
  3.1888393e-002
  2.3334165e-002
  1.4509731e-002
  1.2441860e-002
  9.5511176e-003
  7.9984418e-003
  1.4378455e-002
  2.1174359e-002
  2.0039289e-002
  2.1478081e-002
  3.5911228e-002
  4.8176386e-002
  3.7537089e-002
  1.2302862e-002
 -1.0293649e-003
  5.3681206e-003
  1.6992783e-002
  2.1830685e-002
  1.9161623e-002
  1.1793877e-002
  5.6334824e-003
  7.9498043e-003
  1.4866499e-002
  1.3972941e-002
  7.1535016e-003
  1.0022209e-002
  2.0084754e-002
  1.3941348e-002
 -9.7045543e-003
 -1.7155386e-002
  8.0808300e-003
  3.2461823e-002
  2.0512972e-002
 -1.2540646e-002
 -2.8121845e-002
 -1.9607181e-002
 -6.7071681e-003
  3.4812527e-003
  1.3598486e-002
  1.1376376e-002
 -1.4600466e-002
 -4.4349324e-002
 -4.5382593e-002
 -1.6866370e-002
  1.2578376e-002
  2.5153979e-002
  2.7192518e-002
  2.8269242e-002
  3.0076908e-002
  3.3039769e-002
  3.7178629e-002
  4.0378530e-002
  4.5307753e-002
  5.7877559e-002
  7.1953151e-002
  7.2327067e-002
  6.0146925e-002
  5.3023363e-002
  5.1343833e-002
  3.3095949e-002
 -4.4079370e-003
 -2.9880369e-002
 -2.4771573e-002
 -1.2404087e-002
 -1.6149777e-002
 -2.0654368e-002
 -5.1575999e-003
  1.2853402e-002
  1.4999670e-003
 -3.8851289e-002
 -8.0120805e-002
 -8.9924841e-002
 -2.0100513e-002
  1.8652588e-001
  5.1291251e-001
  8.0161012e-001
  8.4344350e-001
  5.7107906e-001
  1.4562534e-001
 -1.7166958e-001
 -2.3588617e-001
 -1.1401782e-001
  1.5660661e-002
  4.4537405e-002
  9.8085652e-003
  2.3419270e-003
  3.8308257e-002
  5.9347073e-002
  3.7475752e-002
  1.5325584e-002
  2.9744708e-002
  5.5233635e-002
  5.6067921e-002
  4.6847152e-002
  5.9085988e-002
  8.3775571e-002
  9.2950060e-002
  9.2448225e-002
  1.0765493e-001
  1.3484943e-001
  1.5063057e-001
  1.5854502e-001
  1.8491175e-001
  2.3205523e-001
  2.7110017e-001
  2.8224305e-001
  2.7573761e-001
  2.7239557e-001
  2.8286653e-001
  3.0363008e-001
  3.1817307e-001
  3.0775028e-001
  2.7265873e-001
  2.3366560e-001
  2.0384638e-001
  1.7438900e-001
  1.3737122e-001
  1.0192752e-001
  7.5328646e-002
  5.0461156e-002
  2.6811849e-002
  2.0179524e-002
  3.4416879e-002
  4.7036288e-002
  4.1035356e-002
  2.7693601e-002
  2.0282730e-002
  1.1391246e-002
 -3.6115270e-003
 -8.4580951e-003
  4.6527030e-003
  1.4325029e-002
  5.1379108e-003
 -1.9594639e-003
  1.6244035e-002
  4.3702687e-002
  4.9445895e-002
  3.4998806e-002
  2.6158916e-002
  3.1657790e-002
  3.8964002e-002
  3.9773255e-002
  3.4381373e-002
  2.1695114e-002
  6.9152920e-003
  6.7793849e-003
  2.6559132e-002
  4.5106231e-002
  4.2128592e-002
  2.6163155e-002
  1.7338043e-002
  1.8363046e-002
  2.1096054e-002
  2.5218280e-002
  3.1317624e-002
  3.1065477e-002
  2.1576400e-002
  1.3782312e-002
  1.2579781e-002
  8.2402710e-003
  7.4342979e-004
  7.7335979e-003
  3.1947275e-002
  4.8208596e-002
  4.3274056e-002
  4.0878224e-002
  6.2704061e-002
  9.0970878e-002
  9.7599379e-002
  8.6770534e-002
  7.8700678e-002
  7.2498222e-002
  5.7246778e-002
  4.2871868e-002
  4.7082144e-002
  6.2084378e-002
  6.3131101e-002
  4.3633199e-002
  1.9410965e-002
  5.2125997e-003
  4.6339102e-003
  1.3823457e-002
  2.0520087e-002
  1.1519428e-002
 -7.3149525e-003
 -1.6118896e-002
 -1.7444896e-002
 -4.0149000e-002
 -8.0780571e-002
 -6.1445666e-002
  1.1345241e-001
  4.4256195e-001
  7.7540233e-001
  8.9177101e-001
  6.7318530e-001
  2.3404444e-001
 -1.3660396e-001
 -2.2276591e-001
 -8.1279169e-002
  4.9756377e-002
  3.7589034e-002
 -2.4465332e-002
  1.3660973e-004
  8.8033323e-002
  1.1526010e-001
  5.4775288e-002
  5.3017103e-003
  3.3402858e-002
  8.5293382e-002
  8.3368414e-002
  3.9242044e-002
  2.3103765e-002
  5.8473158e-002
  9.7912529e-002
  9.7134470e-002
  7.4736059e-002
  8.1934365e-002
  1.3120384e-001
  1.8206759e-001
  2.0116522e-001
  2.0791937e-001
  2.3721048e-001
  2.7897326e-001
  2.9370577e-001
  2.7840757e-001
  2.7112747e-001
  2.8712245e-001
  2.9725801e-001
  2.8166169e-001
  2.5890311e-001
  2.4279319e-001
  2.1491602e-001
  1.6613909e-001
  1.2412444e-001
  1.0853344e-001
  9.5972095e-002
  6.3266475e-002
  3.0978227e-002
  2.5880982e-002
  3.0806497e-002
  1.4581395e-002
 -1.1302656e-002
 -1.0462839e-002
  1.7953747e-002
  3.8256044e-002
  3.1572341e-002
  1.5292911e-002
  1.1122357e-002
  2.1131610e-002
  3.4740106e-002
  3.9546083e-002
  2.8416498e-002
  1.0269979e-002
  6.1571773e-003
  2.2664101e-002
  4.0996350e-002
  4.3679334e-002
  3.6540589e-002
  3.2092340e-002
  2.9077474e-002
  2.2768526e-002
  1.8183269e-002
  1.8941124e-002
  1.9320472e-002
  1.8325558e-002
  2.2993777e-002
  2.9182792e-002
  2.2538400e-002
  7.7047116e-003
  8.6238949e-003
  2.7960161e-002
  3.7507841e-002
  2.4671223e-002
  1.5047658e-002
  2.7702809e-002
  4.1213061e-002
  3.0914114e-002
  1.0013528e-002
  3.4061716e-003
  6.1882021e-003
  3.5310017e-004
 -7.8557494e-003
  3.1124602e-004
  2.1473996e-002
  3.5719132e-002
  3.6229430e-002
  3.1250102e-002
  2.7796218e-002
  3.1258947e-002
  4.7110493e-002
  6.6903831e-002
  6.9621429e-002
  5.2548175e-002
  4.1139090e-002
  5.1796536e-002
  6.7016355e-002
  6.6487469e-002
  6.0316477e-002
  6.8503078e-002
  8.5732909e-002
  8.9629809e-002
  7.0978364e-002
  3.8548735e-002
  7.2166332e-003
 -6.7362793e-003
  4.0832045e-003
  2.2155735e-002
  1.9818689e-002
 -1.1897420e-003
 -1.0217248e-002
  2.7730873e-003
  8.0711507e-003
 -1.9458484e-002
 -6.3818529e-002
 -8.2198874e-002
 -2.0297055e-002
  1.8372745e-001
  5.3605636e-001
  8.8885335e-001
  9.8200550e-001
  6.8104831e-001
  1.6372275e-001
 -2.1075424e-001
 -2.4157558e-001
 -5.2706635e-002
  8.9230395e-002
  6.7539453e-002
 -1.3963221e-002
 -1.5912652e-002
  5.6476149e-002
  9.1133563e-002
  4.2471994e-002
 -7.9297517e-003
  2.0095768e-002
  8.4794763e-002
  9.0976157e-002
  3.8091675e-002
  1.6490476e-002
  6.3351823e-002
  1.1086765e-001
  1.0141671e-001
  7.4405855e-002
  9.1892766e-002
  1.4109086e-001
  1.7056344e-001
  1.7940652e-001
  2.0588855e-001
  2.5165030e-001
  2.7843094e-001
  2.7270606e-001
  2.6358989e-001
  2.7507715e-001
  2.9772260e-001
  3.1042079e-001
  3.0270283e-001
  2.7466763e-001
  2.3580774e-001
  2.0252816e-001
  1.8133536e-001
  1.5955442e-001
  1.2473305e-001
  8.3724690e-002
  5.1060425e-002
  3.0427330e-002
  1.8916463e-002
  1.6279434e-002
  1.9240036e-002
  2.0050216e-002
  1.8567951e-002
  2.0665083e-002
  2.1126485e-002
  9.7369641e-003
 -2.1140246e-003
  1.0632991e-002
  4.3922789e-002
  6.0806243e-002
  4.3666329e-002
  1.9617501e-002
  1.7660294e-002
  3.0597496e-002
  3.8295927e-002
  3.9635176e-002
  3.9952938e-002
  3.3135581e-002
  1.8172966e-002
  1.0200402e-002
  1.5581806e-002
  1.9237488e-002
  1.3634949e-002
  1.3676839e-002
  2.4694791e-002
  2.5425142e-002
  5.4425885e-003
 -9.5556994e-003
  3.4739808e-003
  2.6454736e-002
  2.8684166e-002
  1.2077747e-002
  1.1072463e-006
 -6.4001066e-004
  7.7084481e-004
  1.5219795e-003
  4.2185246e-003
  5.2785957e-003
  4.3678851e-003
  1.1463019e-002
  2.7750544e-002
  3.5753104e-002
  2.5065440e-002
  1.0990881e-002
  1.1465371e-002
  2.2530825e-002
  3.1487848e-002
  3.5996623e-002
  3.5715168e-002
  2.4550399e-002
  6.2146626e-003
 -1.5725713e-003
  7.5193965e-003
  1.7525143e-002
  1.6320943e-002
  1.2049577e-002
  1.3607003e-002
  1.8436056e-002
  2.8983580e-002
  5.3797370e-002
  8.1533506e-002
  8.4916596e-002
  6.4360443e-002
  5.4640898e-002
  7.0794121e-002
  8.2363838e-002
  6.4552078e-002
  4.0115686e-002
  4.0049985e-002
  5.2136891e-002
  4.3573140e-002
  1.3941549e-002
 -8.3476203e-003
 -8.9149975e-003
  2.4292197e-003
  1.4461347e-002
  2.3157830e-002
  2.4693200e-002
  1.7178518e-002
  1.6549751e-003
 -2.6242617e-002
 -6.3955258e-002
 -6.5266360e-002
  5.6297482e-002
  3.4471162e-001
  7.1140054e-001
  9.4938263e-001
  8.7291803e-001
  4.8363181e-001
  1.2793984e-002
 -2.4228163e-001
 -1.7770737e-001
  2.6665639e-002
  1.1605697e-001
  4.0600726e-002
 -3.5831919e-002
  1.0698719e-002
  1.0729155e-001
  1.2020308e-001
  5.1186518e-002
  1.0542849e-002
  4.5302444e-002
  9.1624130e-002
  8.9759108e-002
  6.2735129e-002
  6.0478148e-002
  8.4627827e-002
  1.0259081e-001
  1.0457215e-001
  1.1316697e-001
  1.4500159e-001
  1.8669713e-001
  2.1475874e-001
  2.2797790e-001
  2.4637667e-001
  2.7726811e-001
  3.0061347e-001
  3.0089363e-001
  2.9457554e-001
  3.0206198e-001
  3.0971503e-001
  2.9360582e-001
  2.6731892e-001
  2.6270423e-001
  2.6938100e-001
  2.4407448e-001
  1.8374387e-001
  1.3553630e-001
  1.2064017e-001
  1.0300980e-001
  5.7451407e-002
  1.6162772e-002
  1.3342261e-002
  2.8817866e-002
  2.7253509e-002
  1.6555088e-002
  2.3915270e-002
  4.2904554e-002
  4.9324375e-002
  4.8851818e-002
  6.4420630e-002
  8.8401363e-002
  8.8859764e-002
  5.9894546e-002
  3.1270769e-002
  2.6103527e-002
  3.5236508e-002
  3.8156386e-002
  3.1133108e-002
  2.8067403e-002
  4.0417771e-002
  5.9461231e-002
  6.2024100e-002
  3.9913183e-002
  1.5688283e-002
  1.4200659e-002
  2.7830967e-002
  3.2857552e-002
  3.0221418e-002
  3.7333423e-002
  4.6171784e-002
  3.1644284e-002
  3.2072041e-003
  1.4149844e-003
  3.2002317e-002
  5.0454499e-002
  3.1421498e-002
  8.2591256e-003
  1.6859614e-002
  4.1235529e-002
  4.7705854e-002
  3.8538511e-002
  3.5307341e-002
  3.6145755e-002
  2.7170108e-002
  1.7547241e-002
  2.8275789e-002
  5.7123538e-002
  8.1704446e-002
  8.8409737e-002
  7.8717999e-002
  5.8995150e-002
  4.1540038e-002
  4.2478584e-002
  6.2157972e-002
  7.9961115e-002
  8.0863709e-002
  7.1885120e-002
  6.2109542e-002
  4.6099977e-002
  2.0145229e-002
 -3.6784859e-003
 -1.2827115e-002
 -7.8144413e-003
  7.4399487e-003
  2.9782495e-002
  4.5825243e-002
  3.9967667e-002
  1.8791816e-002
  1.2063454e-003
 -1.7827997e-002
 -5.3547230e-002
 -6.5767331e-002
  4.6838339e-002
  3.3851554e-001
  7.0752812e-001
  9.2889153e-001
  8.2258193e-001
  4.1585439e-001
 -4.5101094e-002
 -2.7432634e-001
 -1.8874950e-001
  2.4500930e-002
  1.1794437e-001
  4.8001253e-002
 -2.4771002e-002
  1.7331310e-002
  1.0223623e-001
  1.0548839e-001
  3.9141411e-002
  1.4794865e-002
  6.7272282e-002
  1.1582491e-001
  9.7821600e-002
  5.4931803e-002
  5.7474412e-002
  1.0192504e-001
  1.2882669e-001
  1.1556160e-001
  1.0511552e-001
  1.4020397e-001
  2.0339738e-001
  2.4578887e-001
  2.5780519e-001
  2.7537510e-001
  3.1292698e-001
  3.3345394e-001
  3.1168365e-001
  2.8759207e-001
  3.0973087e-001
  3.5239755e-001
  3.4940399e-001
  2.9752705e-001
  2.5855578e-001
  2.5552782e-001
  2.3869479e-001
  1.7605891e-001
  1.1019324e-001
  8.7493331e-002
  8.7184511e-002
  6.7481766e-002
  3.8385172e-002
  3.6202261e-002
  5.5211868e-002
  5.6867224e-002
  3.1818468e-002
  8.1749800e-003
  5.2360899e-003
  1.5034213e-002
  2.6009218e-002
  3.5364706e-002
  3.9015775e-002
  3.2387713e-002
  2.2127242e-002
  2.1953285e-002
  3.6785054e-002
  5.8206280e-002
  7.1650707e-002
  6.6139608e-002
  4.5996006e-002
  3.2153642e-002
  3.8764239e-002
  5.2060098e-002
  4.9820991e-002
  3.5069241e-002
  2.6407558e-002
  2.3068439e-002
  1.2178387e-002
  4.9487558e-003
  2.4674441e-002
  5.7659788e-002
  6.1613782e-002
  3.2056488e-002
  1.3954384e-002
  3.1146987e-002
  5.0449856e-002
  3.9664652e-002
  1.7606154e-002
  1.4948916e-002
  2.2730077e-002
  1.6997676e-002
  6.6057649e-003
  1.8168778e-002
  5.0870165e-002
  7.8995726e-002
  8.7980648e-002
  8.2351727e-002
  6.8836481e-002
  5.3984371e-002
  4.9855130e-002
  6.3316153e-002
  8.4837729e-002
  9.7879569e-002
  9.1654350e-002
  6.2632430e-002
  1.9663918e-002
 -1.0663260e-002
 -5.7094886e-003
  2.1746698e-002
  3.6273871e-002
  2.6941142e-002
  1.5534614e-002
  1.5201981e-002
  1.3145863e-002
  1.2502198e-003
 -1.1714724e-002
 -2.9460584e-002
 -6.7347927e-002
 -9.4600885e-002
 -1.3324435e-002
  2.5334051e-001
  6.4186796e-001
  9.3848883e-001
  9.2014303e-001
  5.4771237e-001
  4.2751242e-002
 -2.6513105e-001
 -2.2647782e-001
 -5.9494687e-003
  1.1466221e-001
  4.9943123e-002
 -4.1094001e-002
 -9.7699959e-003
  8.9514064e-002
  1.1314855e-001
  4.3009405e-002
 -1.1211630e-002
  1.4074371e-002
  6.1825700e-002
  6.1614262e-002
  3.1196462e-002
  3.3279837e-002
  7.7055245e-002
  1.1019057e-001
  9.7893762e-002
  7.1842369e-002
  8.6851441e-002
  1.4889086e-001
  2.1109114e-001
  2.3798841e-001
  2.4340120e-001
  2.5227912e-001
  2.5811133e-001
  2.4839575e-001
  2.4485138e-001
  2.7373901e-001
  3.1178699e-001
  3.1126083e-001
  2.7255500e-001
  2.4048860e-001
  2.2852238e-001
  2.0222786e-001
  1.4753523e-001
  9.8856757e-002
  7.9129325e-002
  6.4062650e-002
  3.3233991e-002
  9.5008087e-003
  1.4629946e-002
  2.6620843e-002
  1.7940650e-002
  2.5842339e-003
  6.9932841e-003
  2.1250053e-002
  1.7953910e-002
  9.8547350e-005
 -6.8447729e-003
  1.9184365e-003
  8.2130187e-003
  4.9156423e-003
  4.4555826e-003
  1.4799207e-002
  2.7089900e-002
  2.8974054e-002
  2.0081195e-002
  1.3473852e-002
  2.1961453e-002
  3.8459664e-002
  3.7645710e-002
  1.0656653e-002
 -1.3143755e-002
 -2.7510188e-003
  2.6221113e-002
  3.2129761e-002
  1.0226384e-002
 -3.8322176e-003
  6.0399751e-003
  1.5537195e-002
  7.8178280e-003
 -9.3478108e-005
  5.4109376e-003
  9.3651474e-003
  3.0209677e-004
 -6.4001943e-003
  1.2858031e-003
  8.1917769e-003
 -2.8550454e-004
 -1.2665033e-002
 -1.3666984e-002
 -8.4724080e-003
 -6.8979515e-003
 -5.7033409e-003
 -2.2903944e-003
 -3.8860908e-003
 -9.6106421e-003
 -6.4958274e-003
  4.7214859e-003
  4.9857921e-003
 -9.9155384e-003
 -1.8364681e-002
 -8.3187237e-003
  3.8691323e-003
  5.1803854e-003
  8.5833594e-003
  2.5862494e-002
  4.3321705e-002
  4.4584091e-002
  3.7046441e-002
  3.7403141e-002
  4.7738876e-002
  5.9849568e-002
  6.7402058e-002
  6.4384837e-002
  4.8951189e-002
  3.4781624e-002
  3.7685228e-002
  4.6691022e-002
  3.3700622e-002
 -2.5967534e-003
 -3.0092285e-002
 -2.8042009e-002
 -1.0743223e-002
  1.2045901e-003
  4.2725086e-003
 -1.7321246e-003
 -2.0376539e-002
 -4.1962131e-002
 -5.0894101e-002
 -5.6778594e-002
 -7.7175152e-002
 -7.0787890e-002
  6.5603153e-002
  3.8279943e-001
  7.6754391e-001
  9.8348455e-001
  8.5364593e-001
  4.2453455e-001
 -4.1999410e-002
 -2.6810191e-001
 -1.9287861e-001
 -7.5731454e-003
  6.4195169e-002
 -1.6376539e-004
 -5.1431703e-002
  2.2355666e-005
  7.4614203e-002
  6.4629688e-002
 -6.8371676e-003
 -3.4715506e-002
  1.3130500e-002
  6.7574568e-002
  6.8674298e-002
  3.6409910e-002
  2.1435032e-002
  3.4210352e-002
  4.8671458e-002
  5.2736686e-002
  6.6512329e-002
  1.0796262e-001
  1.5853817e-001
  1.8232575e-001
  1.7813248e-001
  1.8633966e-001
  2.2943874e-001
  2.7365448e-001
  2.7898222e-001
  2.6239341e-001
  2.6806787e-001
  2.9161037e-001
  2.8741129e-001
  2.4723296e-001
  2.1426717e-001
  2.0983407e-001
  2.0100296e-001
  1.6073582e-001
  1.1128321e-001
  8.1762817e-002
  6.4631619e-002
  4.3305550e-002
  2.6843715e-002
  2.6282753e-002
  2.6630899e-002
  1.3564592e-002
  3.3388710e-003
  1.5466432e-002
  3.4838851e-002
  3.0785933e-002
  1.9097912e-003
 -2.3017568e-002
 -2.2561539e-002
 -3.8040682e-003
  9.8755851e-003
  3.2201390e-003
 -1.4381048e-002
 -1.6885964e-002
  5.2460359e-003
  2.7875168e-002
  2.6304371e-002
  1.3775989e-002
  1.9007842e-002
  3.5361811e-002
  2.9997428e-002
  8.7982759e-004
 -1.7480920e-002
 -1.0458449e-002
 -3.2990061e-003
 -1.3220296e-002
 -2.1909946e-002
 -1.2576727e-002
  2.0540652e-003
  8.1544544e-003
  1.4560059e-002
  2.7536768e-002
  3.0890792e-002
  1.2817376e-002
 -1.1324432e-002
 -2.1948923e-002
 -1.9904890e-002
 -1.3667332e-002
 -4.1659653e-003
  3.9479673e-003
 -1.5271331e-003
 -1.9089825e-002
 -2.9075374e-002
 -2.1778410e-002
 -9.7232483e-003
 -3.7851817e-003
 -1.4548581e-004
  1.2886891e-003
 -8.7612700e-003
 -2.6204542e-002
 -3.0341953e-002
 -1.4424766e-002
  3.2774058e-003
  8.4758182e-003
  8.7693904e-003
  1.4848553e-002
  2.6550207e-002
  4.3728894e-002
  6.7065936e-002
  8.3033084e-002
  7.3963027e-002
  4.8157660e-002
  3.3403821e-002
  3.6337585e-002
  3.6290034e-002
  2.3004695e-002
  9.1261566e-003
 -4.1499545e-005
 -1.5885325e-002
 -3.7657151e-002
 -4.7154618e-002
 -4.1369116e-002
 -3.8245455e-002
 -4.1161107e-002
 -3.1905279e-002
 -1.0397061e-002
 -7.4970062e-003
 -4.3436722e-002
 -9.9349763e-002
 -1.3272117e-001
 -8.6954903e-002
  1.0434428e-001
  4.4836757e-001
  7.9746307e-001
  8.9832965e-001
  6.2306914e-001
  1.3985479e-001
 -2.1443230e-001
 -2.4998516e-001
 -7.8633558e-002
  5.3023686e-002
  3.7529762e-002
 -2.6096486e-002
 -1.2741421e-002
  5.6610940e-002
  6.8565334e-002
 -1.3446405e-003
 -4.9773505e-002
 -2.7545456e-003
  7.4138579e-002
  8.1416673e-002
  3.6298295e-002
  3.0827028e-002
  7.6802601e-002
  9.6097958e-002
  6.2335647e-002
  4.7753442e-002
  1.0033588e-001
  1.6545522e-001
  1.7982648e-001
  1.7064506e-001
  1.9797636e-001
  2.5081776e-001
  2.7089902e-001
  2.5070731e-001
  2.3988802e-001
  2.6257652e-001
  2.8633623e-001
  2.7950054e-001
  2.5467075e-001
  2.3924779e-001
  2.3180467e-001
  2.0880327e-001
  1.6315978e-001
  1.1722135e-001
  9.3521515e-002
  8.3832164e-002
  6.1726985e-002
  2.3999145e-002
 -2.3687773e-003
 -3.3137916e-003
 -1.4500786e-003
 -1.6162627e-002
 -2.7008004e-002
 -9.7783541e-003
  1.4096347e-002
  7.3592637e-003
 -1.9303037e-002
 -2.2365866e-002
  2.8197264e-003
  1.7330034e-002
  6.2053752e-003
 -2.3952216e-003
  6.4264154e-003
  1.1511697e-002
  4.8084779e-003
  1.2600285e-002
  4.3791026e-002
  6.1791002e-002
  3.7941703e-002
 -2.5253350e-003
 -1.7991609e-002
 -5.3034051e-003
  1.1078071e-002
  2.0347602e-002
  2.7646335e-002
  3.2830015e-002
  3.1870585e-002
  2.8421389e-002
  2.7283896e-002
  2.6767657e-002
  2.7332893e-002
  3.4129334e-002
  4.3612551e-002
  4.3358702e-002
  3.1528907e-002
  2.0894339e-002
  1.9709786e-002
  2.4579711e-002
  3.2530150e-002
  4.1970987e-002
  4.4376302e-002
  3.6262802e-002
  3.4089563e-002
  5.1315340e-002
  6.7219394e-002
  5.0965995e-002
  1.3082244e-002
 -3.5375273e-003
  1.5242947e-002
  4.0230093e-002
  4.8966135e-002
  5.0927698e-002
  5.4518225e-002
  4.8415393e-002
  3.0021228e-002
  1.7805008e-002
  1.9769644e-002
  2.0234312e-002
  1.1912148e-002
  1.1039694e-002
  2.6091903e-002
  4.0044794e-002
  3.8739224e-002
  3.0814864e-002
  2.6091407e-002
  1.9877403e-002
  1.1806840e-002
  1.4938872e-002
  3.2137487e-002
  4.6042844e-002
  4.5341180e-002
  4.0586647e-002
  4.4281207e-002
  5.5237908e-002
  6.9210288e-002
  8.4147100e-002
  9.0853770e-002
  8.1506055e-002
  7.0143683e-002
  7.9170716e-002
  1.0256440e-001
  1.1013013e-001
  9.2004166e-002
  6.9377687e-002
  5.6278289e-002
  4.2465879e-002
  2.2725329e-002
  1.2025061e-002
  1.9170100e-002
  3.1486167e-002
  3.6597356e-002
  3.6212601e-002
  3.1325455e-002
  1.8381555e-002
  5.1879246e-003
  2.7704797e-003
 -3.6753317e-003
 -4.0028661e-002
 -8.0059441e-002
 -2.5467638e-002
  2.1294047e-001
  5.9879433e-001
  9.3699805e-001
  9.8458432e-001
  6.5351932e-001
  1.3609535e-001
 -2.1852909e-001
 -2.1827252e-001
 -6.2186491e-003
  1.2566691e-001
  7.2224932e-002
 -1.7360519e-002
  6.7587979e-003
  9.6029052e-002
  1.1304569e-001
  4.3523062e-002
 -2.8834615e-003
  3.3548306e-002
  8.8795221e-002
  8.5934159e-002
  4.4032939e-002
  3.6714664e-002
  8.2790708e-002
  1.2713680e-001
  1.2452795e-001
  1.0076331e-001
  1.1009298e-001
  1.5785283e-001
  2.0194235e-001
  2.2322390e-001
  2.4789798e-001
  2.8749492e-001
  3.0651897e-001
  2.8357750e-001
  2.6096285e-001
  2.8340853e-001
  3.2100899e-001
  3.1372088e-001
  2.6973078e-001
  2.4984819e-001
  2.6279909e-001
  2.5163775e-001
  1.9358429e-001
  1.3984595e-001
  1.2987245e-001
  1.3014642e-001
  9.6488483e-002
  4.6319528e-002
  2.4415289e-002
  3.2756731e-002
  3.8687822e-002
  2.9929375e-002
  2.1982786e-002
  2.3905815e-002
  2.9062144e-002
  3.3497317e-002
  3.9770135e-002
  4.5884121e-002
  4.6033483e-002
  3.9715082e-002
  3.2121075e-002
  2.9673352e-002
  3.6835869e-002
  4.9832673e-002
  5.5642842e-002
  4.7252450e-002
  3.4539438e-002
  2.8402902e-002
  2.4667915e-002
  1.9370262e-002
  2.4341905e-002
  4.4351079e-002
  5.5672395e-002
  3.8300965e-002
  1.4581499e-002
  1.9306313e-002
  4.3651374e-002
  5.0126954e-002
  3.3996909e-002
  2.3529343e-002
  2.3856120e-002
  1.1940114e-002
 -9.3709522e-003
 -5.6068872e-003
  2.8139148e-002
  5.0039707e-002
  3.5129940e-002
  1.1598060e-002
  1.0411290e-002
  1.9516462e-002
  1.6143460e-002
  9.5098663e-003
  1.8629428e-002
  3.3156580e-002
  3.0039648e-002
  1.4520131e-002
  1.4976720e-002
  4.2077520e-002
  7.3927872e-002
  8.2500075e-002
  6.4785997e-002
  4.6109459e-002
  5.2220177e-002
  7.7734301e-002
  9.1924413e-002
  8.0546263e-002
  6.3249968e-002
  5.6287598e-002
  4.3644382e-002
  1.1683752e-002
 -1.3114234e-002
 -9.9868631e-005
  3.0659008e-002
  3.4998443e-002
  1.4022173e-002
  7.2902769e-003
  2.2622436e-002
  2.5202281e-002
 -2.1499496e-003
 -3.9157809e-002
 -6.8538259e-002
 -7.4313364e-002
  7.8681340e-003
  2.5510452e-001
  6.1761190e-001
  8.7218880e-001
  8.0031894e-001
  4.1965861e-001
 -7.8811148e-003
 -2.1525260e-001
 -1.5979421e-001
 -1.3003858e-002
  4.9055938e-002
  1.3442005e-002
 -1.3130307e-002
  2.6867492e-002
  7.4311227e-002
  6.0765028e-002
  1.7082588e-002
  2.1398931e-002
  7.6844928e-002
  1.1097195e-001
  8.7466731e-002
  5.0665514e-002
  4.8859427e-002
  7.1862667e-002
  8.7008842e-002
  9.1524154e-002
  1.0248984e-001
  1.2685644e-001
  1.6331829e-001
  2.0894802e-001
  2.4874644e-001
  2.6285939e-001
  2.5637720e-001
  2.5796644e-001
  2.7921847e-001
  3.0013641e-001
  3.0346173e-001
  2.9660793e-001
  2.8916041e-001
  2.7475857e-001
  2.4800491e-001
  2.1765619e-001
  1.9140157e-001
  1.6497368e-001
  1.3385146e-001
  1.0016541e-001
  6.5564295e-002
  3.3517142e-002
  1.6512069e-002
  2.1723634e-002
  3.3916228e-002
  3.3905459e-002
  2.6940519e-002
  2.8565623e-002
  3.2707200e-002
  2.4337647e-002
  1.3712441e-002
  2.1224875e-002
  3.5069471e-002
  2.5486480e-002
 -5.0373091e-004
 -2.7947764e-003
  2.8393171e-002
  5.6084517e-002
  5.4073428e-002
  4.0144932e-002
  3.6981271e-002
  3.7460942e-002
  2.8618535e-002
  1.9196461e-002
  2.1936963e-002
  3.1032445e-002
  3.4725294e-002
  3.2497979e-002
  2.7522659e-002
  1.8729589e-002
  9.1249267e-003
  6.3953281e-003
  9.9923025e-003
  1.2091358e-002
  1.1594421e-002
  1.1705108e-002
  8.4312808e-003
  3.8724096e-004
  1.5872634e-003
  2.0752433e-002
  3.7804883e-002
  2.9797186e-002
  1.0593160e-002
  1.0969850e-002
  2.7124082e-002
  2.7810530e-002
  9.2651454e-003
  9.3092747e-004
  1.3483906e-002
  2.2826143e-002
  1.4590846e-002
  6.1199879e-003
  1.1867686e-002
  2.1139265e-002
  2.4331636e-002
  3.1323039e-002
  4.9128031e-002
  6.6506607e-002
  7.3350141e-002
  7.3931586e-002
  7.2546516e-002
  6.7096938e-002
  6.2309189e-002
  6.7767787e-002
  7.8746988e-002
  7.9390390e-002
  6.6118900e-002
  4.7649917e-002
  2.5494189e-002
 -1.2605327e-003
 -1.7384852e-002
 -7.2907601e-003
  1.3721917e-002
  1.4793550e-002
 -5.5176968e-003
 -2.0314598e-002
 -1.8485022e-002
 -1.6210324e-002
 -2.6465018e-002
 -4.6752718e-002
 -6.5771640e-002
 -4.0863640e-002
  1.1339927e-001
  4.3684808e-001
  8.0005618e-001
  9.4287451e-001
  7.0983564e-001
  2.3570260e-001
 -1.5436871e-001
 -2.4166802e-001
 -9.2045604e-002
  5.9726266e-002
  6.9949131e-002
  1.3008075e-003
 -1.0450518e-002
  5.2461144e-002
  8.6871811e-002
  3.6668095e-002
 -2.1923962e-002
  1.9443039e-004
  7.1231590e-002
  9.5442134e-002
  6.0365817e-002
  4.0620257e-002
  6.9623229e-002
  9.6736453e-002
  8.4501420e-002
  6.9136982e-002
  9.2517325e-002
  1.3637074e-001
  1.6422274e-001
  1.8250366e-001
  2.1730414e-001
  2.6150624e-001
  2.8560159e-001
  2.8369130e-001
  2.7651820e-001
  2.7858799e-001
  2.8586553e-001
  2.8939941e-001
  2.8396147e-001
  2.6689163e-001
  2.3842061e-001
  2.0197758e-001
  1.6368585e-001
  1.3442526e-001
  1.2380394e-001
  1.2271289e-001
  1.0462276e-001
  5.9868525e-002
  1.4973927e-002
 -1.2689817e-003
  4.7610575e-003
  1.0790509e-002
  1.6074618e-002
  2.8704568e-002
  3.3943421e-002
  1.4616095e-002
 -8.8191616e-003
 -1.1690297e-003
  3.0244312e-002
  4.3674785e-002
  2.6372052e-002
  7.5699859e-003
  6.8751672e-003
  1.2376722e-002
  1.5661021e-002
  2.6649008e-002
  4.3132034e-002
  4.4036586e-002
  2.6802279e-002
  1.7964069e-002
  3.2157448e-002
  4.9694504e-002
  4.8363514e-002
  3.1854121e-002
  1.4933414e-002
  3.7576138e-003
  7.8522530e-004
  7.8624030e-003
  1.6455270e-002
  1.3826322e-002
  3.0128602e-003
 -1.9643467e-003
 -4.0775735e-004
 -2.9706306e-003
 -7.4068236e-003
 -8.5822774e-004
  1.4225088e-002
  2.1034756e-002
  1.5180866e-002
  7.4994473e-003
  2.3542853e-003
 -3.4785666e-003
 -4.7573509e-003
  4.2289275e-003
  1.1312898e-002
  2.9851703e-003
 -7.7685436e-003
  1.5756295e-004
  1.7368278e-002
  1.7278381e-002
  2.0530181e-003
 -1.7243652e-003
  9.3451802e-003
  1.1311033e-002
 -1.6994720e-003
 -6.9666082e-003
  4.9140770e-003
  1.4024989e-002
  8.3491785e-003
  5.4691390e-003
  2.3430896e-002
  5.4230831e-002
  7.7368915e-002
  8.1396317e-002
  6.7526918e-002
  4.9583315e-002
  4.9039070e-002
  7.0624601e-002
  8.8324991e-002
  7.7722719e-002
  5.2779385e-002
  4.2598038e-002
  4.2619910e-002
  2.4962496e-002
 -8.7099940e-003
 -2.4900856e-002
 -1.0712689e-002
  9.1048033e-003
  1.3500024e-002
  9.5204073e-003
  7.5917580e-003
  2.0884871e-003
 -1.5550115e-002
 -4.6068963e-002
 -7.9505058e-002
 -7.2328814e-002
  5.8935971e-002
  3.5942644e-001
  7.2716785e-001
  9.3288117e-001
  8.0579825e-001
  4.0604942e-001
 -9.3288129e-003
 -2.0341232e-001
 -1.4829524e-001
 -9.0524122e-003
  4.7532167e-002
  1.2028187e-002
 -9.2602344e-003
  3.6070230e-002
  8.1630006e-002
  5.9761498e-002
  1.0346193e-002
  1.2565533e-002
  5.6994154e-002
  6.6493877e-002
  2.4702429e-002
 -1.1831044e-003
  2.8599755e-002
  7.0651008e-002
  7.8241263e-002
  7.1702696e-002
  9.1815076e-002
  1.3169243e-001
  1.5778014e-001
  1.6721403e-001
  1.8324217e-001
  2.1040542e-001
  2.2952588e-001
  2.3232846e-001
  2.3544172e-001
  2.5646808e-001
  2.8901568e-001
  3.0742322e-001
  2.9554950e-001
  2.6670492e-001
  2.4575985e-001
  2.3289026e-001
  2.0469211e-001
  1.5665492e-001
  1.1633354e-001
  9.8039295e-002
  7.6276438e-002
  3.2149218e-002
 -5.0243645e-003
 -1.3840765e-003
  2.2493300e-002
  2.3248725e-002
  5.6184926e-003
  8.4496371e-003
  3.1383441e-002
  3.3486751e-002
  5.4855071e-003
 -1.3221429e-002
 -4.4201944e-004
  1.6802980e-002
  1.3200296e-002
  3.1775173e-003
  6.0079330e-003
  1.0791464e-002
  2.2415216e-003
 -7.1527106e-003
  2.4975903e-003
  2.3889479e-002
  3.1132213e-002
  1.4208821e-002
 -9.8241679e-003
 -1.6657014e-002
 -6.5614624e-004
  1.7189440e-002
  1.1855970e-002
 -1.1895397e-002
 -2.2479826e-002
 -6.7496430e-003
  9.6878450e-003
  4.4757998e-003
 -5.5099519e-003
  2.2300012e-003
  1.2368923e-002
 -1.8339495e-005
 -1.8885358e-002
 -1.0656979e-002
  1.4748470e-002
  1.5824900e-002
 -1.1587803e-002
 -2.6629721e-002
 -9.0303645e-003
  1.3453935e-002
  1.3735943e-002
  9.6675607e-004
 -7.1527978e-003
 -1.3358953e-002
 -2.5021044e-002
 -3.4962745e-002
 -3.3124314e-002
 -1.9958679e-002
 -1.0092556e-003
  1.6038853e-002
  1.8513597e-002
  1.4045674e-003
 -1.9195669e-002
 -2.4362820e-002
 -1.8710122e-002
 -1.7915765e-002
 -1.9312628e-002
 -1.0725021e-002
  5.8508953e-004
 -2.3739746e-003
 -1.4507005e-002
 -1.7412257e-002
 -1.4067397e-002
 -2.1936910e-002
 -3.5307841e-002
 -2.9338748e-002
 -2.0671880e-003
  2.0684375e-002
  2.5020827e-002
  2.3599904e-002
  2.7813624e-002
  3.3474309e-002
  3.7114765e-002
  4.1138332e-002
  4.1240450e-002
  3.2194747e-002
  2.4333488e-002
  2.9546227e-002
  3.4768288e-002
  1.6697065e-002
 -2.0004678e-002
 -4.6908330e-002
 -5.1996235e-002
 -4.8706706e-002
 -4.7886055e-002
 -4.8346008e-002
 -5.2448084e-002
 -6.3119429e-002
 -6.8713504e-002
 -6.0452918e-002
 -6.1272477e-002
 -9.9996290e-002
 -1.4578974e-001
 -9.7838927e-002
  1.3052648e-001
  5.0347064e-001
  8.3175489e-001
  8.7591226e-001
  5.4645595e-001
  3.4808510e-002
 -3.0947598e-001
 -2.9715904e-001
 -7.5076548e-002
  6.5557238e-002
  2.0147301e-002
 -6.8256315e-002
 -5.3780344e-002
  2.5221998e-002
  4.5313091e-002
 -1.1656645e-002
 -5.4570294e-002
 -3.0535234e-002
  1.0613220e-002
  6.3889253e-003
 -2.6780793e-002
 -2.6187604e-002
  2.3035225e-002
  6.8636888e-002
  6.7471008e-002
  4.5063953e-002
  5.4197369e-002
  9.7197599e-002
  1.3050632e-001
  1.3968918e-001
  1.5855000e-001
  2.0132609e-001
  2.3008784e-001
  2.2051871e-001
  2.1019296e-001
  2.3574317e-001
  2.6467474e-001
  2.4738353e-001
  2.0459517e-001
  1.9589198e-001
  2.1924931e-001
  2.1318065e-001
  1.5652640e-001
  9.7177297e-002
  7.0595813e-002
  5.2661861e-002
  1.5639700e-002
 -2.2243578e-002
 -3.3272254e-002
 -2.6703941e-002
 -2.7747742e-002
 -3.7451673e-002
 -4.0889058e-002
 -3.6539528e-002
 -3.4656428e-002
 -3.7646291e-002
 -3.8231284e-002
 -3.1311128e-002
 -2.0367425e-002
 -1.6173670e-002
 -2.7221650e-002
 -4.4784958e-002
 -4.6180461e-002
 -2.4462136e-002
 -3.1584611e-003
 -5.9038764e-003
 -2.4535621e-002
 -3.5614730e-002
 -3.3766216e-002
 -2.7397651e-002
 -1.7685457e-002
 -6.7789461e-003
 -1.0289461e-002
 -3.3264992e-002
 -4.9784181e-002
 -3.7578954e-002
 -1.7216404e-002
 -2.1998316e-002
 -4.3103552e-002
 -4.3800502e-002
 -1.8717541e-002
  1.3770091e-003
 -9.7467043e-004
 -1.4405225e-002
 -2.9753953e-002
 -4.8528722e-002
 -6.0807822e-002
 -5.1570610e-002
 -3.1156509e-002
 -2.5501290e-002
 -3.4335096e-002
 -3.2375727e-002
 -1.4062753e-002
 -3.0670354e-003
 -1.2081421e-002
 -2.4875778e-002
 -2.6066036e-002
 -2.1439194e-002
 -2.0975676e-002
 -2.4591516e-002
 -3.0424191e-002
 -3.7734977e-002
 -3.9393494e-002
 -2.9329492e-002
 -1.5765303e-002
 -9.8547550e-003
 -6.8606744e-003
  2.9672784e-003
  1.3720976e-002
  1.5169809e-002
  1.4313156e-002
  2.2315904e-002
  3.1241927e-002
  2.9180173e-002
  2.6064927e-002
  3.6124709e-002
  4.6963484e-002
  3.7075710e-002
  1.3372601e-002
 -9.9279304e-004
 -5.9741877e-003
 -1.7407858e-002
 -2.9523717e-002
 -2.2336588e-002
 -2.2185910e-003
  2.2272158e-003
 -1.5006564e-002
 -3.0779354e-002
 -3.3400928e-002
 -3.9537452e-002
 -6.6104914e-002
 -1.0439321e-001
 -1.1376156e-001
 -2.2539047e-002
  2.3109630e-001
  5.9993354e-001
  8.7939816e-001
  8.3981598e-001
  4.5650358e-001
 -2.2819558e-002
 -2.8551148e-001
 -2.3122103e-001
 -2.9579043e-002
  8.4726327e-002
  4.5058984e-002
 -2.8337444e-002
 -1.4320576e-002
  5.8571084e-002
  7.7748708e-002
  1.9289262e-002
 -2.3481106e-002
  1.1803647e-002
  6.5933145e-002
  6.1859972e-002
  2.7254531e-002
  3.8620638e-002
  9.0355511e-002
  1.0962331e-001
  8.3111394e-002
  7.7484130e-002
  1.2636273e-001
  1.7959228e-001
  1.9105085e-001
  1.8801992e-001
  2.1400945e-001
  2.5421422e-001
  2.6462357e-001
  2.4419317e-001
  2.3303738e-001
  2.5146180e-001
  2.7669863e-001
  2.7962697e-001
  2.5980906e-001
  2.3698058e-001
  2.2018568e-001
  1.9703002e-001
  1.5549380e-001
  1.0640673e-001
  7.0547798e-002
  4.8295195e-002
  2.3959821e-002
  2.9082344e-004
 -1.7670059e-003
  1.4010876e-002
  1.2800591e-002
 -1.5809443e-002
 -3.3765437e-002
 -1.4404935e-002
  1.0865408e-002
  3.8616044e-003
 -1.6557886e-002
 -9.5954841e-003
  1.5722900e-002
  1.8455234e-002
 -1.9617984e-003
 -8.3675689e-003
  7.1275418e-003
  1.5197077e-002
  8.2553045e-003
  1.2539961e-002
  3.3246526e-002
  3.8467486e-002
  1.3709194e-002
 -1.1024925e-002
 -8.7184515e-003
  5.5646500e-003
  5.0006051e-003
 -7.4805769e-003
 -1.1161314e-002
 -2.3990106e-003
  4.0960095e-003
  4.3152234e-004
 -3.9185101e-003
  2.6679227e-003
  1.4237990e-002
  9.5339158e-003
 -1.7982536e-002
 -3.8915398e-002
 -1.9701769e-002
  2.2799398e-002
  3.1624191e-002
 -1.1316733e-002
 -5.3173802e-002
 -4.3248050e-002
 -2.6050176e-003
  1.6258747e-002
  7.8135003e-003
  4.6306448e-003
  1.2876945e-002
  9.8225808e-003
 -4.5637250e-003
 -5.4695862e-003
  8.0102345e-003
  8.6169593e-003
 -9.9660608e-003
 -2.0967589e-002
 -9.3241536e-003
  7.1618323e-003
  1.1267533e-002
  1.0846867e-002
  1.9709063e-002
  3.7309263e-002
  5.4819549e-002
  6.4191495e-002
  6.0257973e-002
  4.9305142e-002
  4.9583313e-002
  6.5816579e-002
  7.4120490e-002
  5.4579358e-002
  2.6261653e-002
  2.1763505e-002
  3.7250131e-002
  3.9476081e-002
  1.7120812e-002
 -6.1584617e-003
 -9.0344024e-003
  4.2946483e-003
  1.8446474e-002
  2.1806072e-002
  8.7015419e-003
 -1.4171910e-002
 -2.8996652e-002
 -3.2508410e-002
 -4.8001069e-002
 -8.4192506e-002
 -8.7125663e-002
  3.6242904e-002
  3.2803511e-001
  7.0470946e-001
  9.6624748e-001
  9.1116321e-001
  5.1244562e-001
  2.7983543e-003
 -2.8324713e-001
 -2.1611470e-001
  1.0335537e-002
  1.1578844e-001
  4.4163417e-002
 -3.6076166e-002
 -1.0917964e-003
  7.8725771e-002
  8.0601322e-002
  1.3259045e-002
 -1.6474208e-002
  3.3264105e-002
  9.3069376e-002
  9.2485448e-002
  5.1566963e-002
  3.8726407e-002
  7.3846785e-002
  1.1134815e-001
  1.1419665e-001
  1.0724720e-001
  1.3456524e-001
  1.8828699e-001
  2.2026257e-001
  2.1835605e-001
  2.2365389e-001
  2.6039059e-001
  2.9662224e-001
  3.0031997e-001
  2.9084490e-001
  2.9830888e-001
  3.0954048e-001
  2.9795767e-001
  2.7570306e-001
  2.6753794e-001
  2.5768273e-001
  2.1537558e-001
  1.5658305e-001
  1.2590283e-001
  1.2555588e-001
  1.1555729e-001
  8.2542319e-002
  5.6634150e-002
  5.4383322e-002
  5.2825032e-002
  3.3194688e-002
  1.0991148e-002
  6.8067763e-003
  1.7376597e-002
  2.9016232e-002
  3.5684890e-002
  3.4249877e-002
  2.3693923e-002
  1.6433068e-002
  3.0204220e-002
  6.1355975e-002
  8.2389965e-002
  7.2106821e-002
  3.7777059e-002
  6.7559957e-003
  3.6140364e-003
  2.9896245e-002
  5.9057736e-002
  6.1773099e-002
  4.2645655e-002
  3.4480963e-002
  4.8696769e-002
  5.8024101e-002
  4.3140168e-002
  2.4411734e-002
  2.2580015e-002
  2.0359773e-002
 -2.3511648e-003
 -2.3464787e-002
 -1.0698019e-002
  2.2487945e-002
  3.7139713e-002
  3.0099426e-002
  3.0237626e-002
  4.3270918e-002
  4.5919114e-002
  3.2433769e-002
  2.4464021e-002
  3.1572253e-002
  3.8164901e-002
  3.3967454e-002
  2.6450367e-002
  1.9901818e-002
  1.0408169e-002
  3.7059756e-003
  1.1626831e-002
  2.8755782e-002
  3.5983652e-002
  2.8076849e-002
  1.7613706e-002
  1.4056247e-002
  1.7886019e-002
  2.9586388e-002
  4.4586855e-002
  4.6985221e-002
  2.9077614e-002
  8.8835178e-003
  8.1224686e-003
  2.3195629e-002
  3.8004085e-002
  5.1608128e-002
  6.9760838e-002
  8.3252657e-002
  8.1287784e-002
  7.4198387e-002
  7.6328423e-002
  7.8320435e-002
  6.3985484e-002
  4.3426797e-002
  4.0713592e-002
  5.7084803e-002
  7.1983658e-002
  7.1716563e-002
  5.4577911e-002
  2.1119035e-002
 -1.5999701e-002
 -2.8116152e-002
 -4.3095144e-003
  2.5554421e-002
  2.8908064e-002
  1.4365090e-002
  7.0492964e-003
 -5.1872937e-004
 -3.3727493e-002
 -8.2137178e-002
 -9.5058757e-002
 -2.2349577e-002
  1.6478578e-001
  4.6135267e-001
  7.8141688e-001
  9.4419612e-001
  7.9447221e-001
  3.7728315e-001
 -5.2103136e-002
 -2.4115190e-001
 -1.5940576e-001
  1.0324415e-002
  8.2529236e-002
  4.1290987e-002
  1.8841114e-003
  3.7494697e-002
  9.2440212e-002
  8.0161899e-002
  1.7048028e-002
 -2.8623424e-003
  4.8706994e-002
  9.4286352e-002
  7.4773841e-002
  3.8469253e-002
  5.6188643e-002
  1.0782372e-001
  1.2378239e-001
  1.0172986e-001
  1.0378013e-001
  1.5139581e-001
  1.9794464e-001
  2.1052617e-001
  2.1456137e-001
  2.4045041e-001
  2.7705668e-001
  3.0016890e-001
  3.0918208e-001
  3.1397113e-001
  3.1298712e-001
  3.0314146e-001
  2.9163010e-001
  2.8318052e-001
  2.6930457e-001
  2.3969827e-001
  1.9514618e-001
  1.4600582e-001
  1.0522449e-001
  8.0567239e-002
  6.7044713e-002
  5.3221329e-002
  3.9430946e-002
  3.6701024e-002
  4.3020923e-002
  4.1649267e-002
  3.1684566e-002
  3.3473973e-002
  4.9100561e-002
  4.8634417e-002
  1.8566888e-002
 -7.2541062e-003
  4.5650285e-003
  3.5967380e-002
  4.8798451e-002
  4.2237524e-002
  4.0315089e-002
  4.3303986e-002
  3.4419246e-002
  2.0900902e-002
  2.5527851e-002
  4.4513844e-002
  5.2433109e-002
  4.4087131e-002
  3.6515037e-002
  3.4628105e-002
  2.8815114e-002
  2.2026177e-002
  2.5695527e-002
  3.1840598e-002
  2.1656871e-002
  4.6131951e-004
 -6.5088345e-003
  6.8440460e-003
  2.0652284e-002
  2.1948645e-002
  1.8887337e-002
  2.0931652e-002
  2.7155034e-002
  3.5585875e-002
  4.6005640e-002
  5.3559305e-002
  5.3230899e-002
  4.6826451e-002
  3.5703189e-002
  1.7197344e-002
 -1.7182149e-003
 -3.9853884e-003
  1.1389639e-002
  2.2749458e-002
  2.0080575e-002
  2.1439356e-002
  3.6682488e-002
  4.3883446e-002
  2.8085111e-002
  1.4240313e-002
  2.7705998e-002
  4.7929526e-002
  4.0954237e-002
  1.7018834e-002
  1.2358167e-002
  2.8122986e-002
  3.2617474e-002
  1.8317709e-002
  1.3471441e-002
  3.4702007e-002
  6.4074658e-002
  7.8989831e-002
  7.7374575e-002
  6.8802726e-002
  6.2008622e-002
  6.2715690e-002
  6.8184157e-002
  6.8022770e-002
  6.2254361e-002
  6.5403073e-002
  7.7892583e-002
  7.3499416e-002
  3.7855549e-002
 -4.7687686e-004
 -5.3168860e-003
  1.7290860e-002
  3.3458438e-002
  3.0605732e-002
  2.2187798e-002
  1.6342424e-002
  9.3477749e-003
 -1.1755001e-003
 -2.1092769e-002
 -5.5438667e-002
 -6.3910192e-002
  5.1384758e-002
  3.4652084e-001
  7.1242290e-001
  9.0841657e-001
  7.6795285e-001
  3.6899260e-001
 -2.1067293e-002
 -1.7881782e-001
 -1.0588295e-001
  1.7304973e-002
  4.4108374e-002
  4.7896867e-004
 -6.1037151e-004
  6.3489827e-002
  1.0383365e-001
  6.8932776e-002
  2.5211588e-002
  4.6942463e-002
  9.9214137e-002
  1.0046218e-001
  5.4417634e-002
  3.8147188e-002
  7.8491426e-002
  1.2015549e-001
  1.1971856e-001
  1.0265678e-001
  1.0902707e-001
  1.3652982e-001
  1.6324853e-001
  1.8886902e-001
  2.2554668e-001
  2.6917452e-001
  3.0157953e-001
  3.1189960e-001
  3.0516584e-001
  2.9569313e-001
  2.9497587e-001
  3.0119791e-001
  3.0257827e-001
  2.9298442e-001
  2.7485053e-001
  2.4625653e-001
  2.0412327e-001
  1.6390225e-001
  1.4901318e-001
  1.5029294e-001
  1.2770221e-001
  7.0613238e-002
  2.2869779e-002
  2.1408625e-002
  4.2209253e-002
  4.1211572e-002
  2.0410730e-002
  1.2695440e-002
  2.2565297e-002
  2.6222193e-002
  1.8550491e-002
  1.7804631e-002
  2.8237078e-002
  3.4583479e-002
  3.2351773e-002
  3.3090432e-002
  4.0646012e-002
  4.7646037e-002
  5.2710936e-002
  5.8976145e-002
  6.0702993e-002
  5.1385076e-002
  3.7751586e-002
  2.7956690e-002
  1.7409270e-002
  4.1741994e-003
  2.5610312e-003
  2.0003393e-002
  3.6693195e-002
  3.1572817e-002
  1.3034898e-002
  8.5703349e-004
 -4.9170366e-003
 -1.2298872e-002
 -1.3275786e-002
  3.9415377e-004
  1.3895236e-002
  1.0926873e-002
  3.4113238e-003
  1.0577957e-002
  2.3540050e-002
  2.1662817e-002
  1.0690538e-002
  1.1803120e-002
  2.2561782e-002
  2.1179845e-002
  4.0505308e-003
 -1.0038268e-002
 -9.6479416e-003
 -3.2820025e-004
  1.1226068e-002
  2.2151740e-002
  2.9111898e-002
  3.6118536e-002
  5.5602763e-002
  8.4931995e-002
  9.7426027e-002
  7.6894639e-002
  4.4936732e-002
  3.2203309e-002
  3.8942092e-002
  4.6676760e-002
  5.1013112e-002
  5.6865797e-002
  5.7349088e-002
  4.4528105e-002
  2.8151550e-002
  1.9633490e-002
  1.1681687e-002
 -3.3415468e-003
 -1.2158368e-002
 -2.8656087e-003
  9.2514920e-003
  5.4798561e-003
 -3.7297264e-003
  6.5884252e-004
  7.5000041e-003
 -1.1961869e-002
 -5.9307815e-002
 -9.5697181e-002
 -6.0454810e-002
  1.0490067e-001
  4.0693262e-001
  7.3332797e-001
  8.7470432e-001
  6.9120614e-001
  2.7369110e-001
 -1.0670575e-001
 -2.3572407e-001
 -1.3025177e-001
  2.2017451e-002
  6.6751282e-002
  1.1828001e-002
 -2.8817493e-002
  1.0846652e-002
  7.6238860e-002
  7.8353715e-002
  1.9286348e-002
 -1.4633579e-002
  2.1731748e-002
  7.3947880e-002
  7.6878713e-002
  4.6668764e-002
  4.1610633e-002
  7.1969429e-002
  1.0057984e-001
  1.0927552e-001
  1.1446476e-001
  1.2882773e-001
  1.5100283e-001
  1.8516440e-001
  2.3245133e-001
  2.7031876e-001
  2.7626629e-001
  2.6561404e-001
  2.7122961e-001
  2.9153536e-001
  2.9391232e-001
  2.6835929e-001
  2.4359976e-001
  2.4364501e-001
  2.5421206e-001
  2.4126249e-001
  1.8903272e-001
  1.1655457e-001
  6.3038352e-002
  5.1167451e-002
  6.0396175e-002
  5.0317957e-002
  1.4812780e-002
 -1.0086926e-002
 -1.5983368e-003
  1.6312642e-002
  1.3360188e-002
 -2.9546387e-003
 -9.6496625e-003
 -8.3369473e-003
 -1.2578060e-002
 -1.6502868e-002
 -7.4949591e-003
  6.4945382e-003
  1.1460685e-002
  1.3646689e-002
  2.3848759e-002
  3.1544512e-002
  2.2731641e-002
  8.4156457e-003
  7.3907102e-003
  1.4797338e-002
  1.4719266e-002
  9.5730057e-003
  1.0060531e-002
  1.0514800e-002
  1.7206948e-003
 -5.7137073e-003
  1.8254237e-003
  1.4555406e-002
  1.7235442e-002
  1.9693938e-002
  4.0240186e-002
  6.9861874e-002
  8.2266398e-002
  7.2459164e-002
  6.0119309e-002
  6.1200163e-002
  7.7294476e-002
  1.0440315e-001
  1.3293098e-001
  1.4980411e-001
  1.5847448e-001
  1.8291575e-001
  2.3332859e-001
  2.8393608e-001
  3.0475247e-001
  2.9901152e-001
  2.8932431e-001
  2.8504663e-001
  2.8437925e-001
  2.8862938e-001
  2.9017334e-001
  2.6561637e-001
  2.0730517e-001
  1.4485870e-001
  1.0990438e-001
  9.5740238e-002
  7.6512309e-002
  4.8332983e-002
  2.4462521e-002
  6.6830015e-003
 -9.8265629e-003
 -1.6918266e-002
 -6.1718556e-003
  1.0478389e-002
  1.6663884e-002
  1.5214560e-002
  1.4388378e-002
  7.6030100e-003
 -8.7319045e-003
 -1.5046204e-002
  5.5635473e-003
  3.5608450e-002
  4.5137059e-002
  3.3773182e-002
  2.4956111e-002
  2.8829197e-002
  3.5308673e-002
  3.5190026e-002
  2.7197168e-002
  1.3197077e-002
  2.5956062e-003
  8.0399504e-003
  2.2582310e-002
  2.0758582e-002
 -1.3126892e-003
 -1.1686671e-002
  9.5776252e-003
  3.4452621e-002
  2.7766605e-002
  1.4834333e-003
 -5.1822320e-003
  1.5869301e-002
  3.5977328e-002
  3.2777175e-002
  1.1142197e-002
 -1.1038995e-002
 -1.5768916e-002
  6.2797498e-003
  4.0450028e-002
  5.4260190e-002
  3.6356920e-002
  1.2860800e-002
  8.0343230e-003
  1.1208502e-002
  4.6145427e-003
 -1.1234327e-003
  1.0930214e-002
  2.7375907e-002
  2.3703538e-002
  6.2595739e-003
  2.4617405e-003
  1.7874712e-002
  3.2031843e-002
  3.1991753e-002
  2.6216584e-002
  2.8290554e-002
  4.3524020e-002
  6.5925127e-002
  7.8319430e-002
  6.8094127e-002
  5.0540251e-002
  5.5471215e-002
  8.1001884e-002
  8.9019329e-002
  6.1839505e-002
  3.0848621e-002
  2.6161689e-002
  3.1309134e-002
  1.8488831e-002
 -2.0890067e-003
 -5.3300264e-003
  1.4834389e-003
 -4.4404471e-003
 -1.5235425e-002
 -4.9512767e-003
  2.1280118e-002
  2.7982596e-002
 -4.7293241e-003
 -6.1765722e-002
 -1.0444098e-001
 -6.9882146e-002
  1.1556157e-001
  4.5751370e-001
  8.1357436e-001
  9.4951437e-001
  7.3498091e-001
  2.9034972e-001
 -9.2136503e-002
 -2.0159918e-001
 -8.5921248e-002
  3.6509313e-002
  3.2978431e-002
 -2.0690623e-002
  7.6843860e-003
  1.0000990e-001
  1.2065218e-001
  3.0519658e-002
 -4.7450312e-002
 -1.0342412e-002
  7.8780852e-002
  9.8033554e-002
  4.5232380e-002
  1.6703202e-002
  4.9814153e-002
  8.6469962e-002
  8.5958090e-002
  8.3512399e-002
  1.1687176e-001
  1.6432268e-001
  1.8907730e-001
  1.9836400e-001
  2.2229199e-001
  2.6128518e-001
  2.8768043e-001
  2.8862650e-001
  2.8210564e-001
  2.8923824e-001
  3.0595788e-001
  3.1113805e-001
  2.9810576e-001
  2.8329573e-001
  2.7549826e-001
  2.5378726e-001
  1.9912464e-001
  1.3535040e-001
  1.0394455e-001
  1.0172000e-001
  8.4962259e-002
  4.0654420e-002
  7.8255480e-003
  1.2659217e-002
  2.8595398e-002
  2.5968134e-002
  1.7703444e-002
  2.2893220e-002
  2.4508540e-002
  3.3601896e-003
 -1.8003041e-002
 -8.5573099e-003
  1.8334159e-002
  2.7693315e-002
  1.9168334e-002
  1.8654649e-002
  2.8801059e-002
  2.9834589e-002
  2.0831111e-002
  2.0539023e-002
  3.0150092e-002
  3.0030251e-002
  1.4660421e-002
  2.5577742e-003
  8.2978422e-003
  2.5032503e-002
  3.6232997e-002
  3.1235368e-002
  1.2382669e-002
 -3.6592295e-003
 -1.7837948e-004
  1.6365955e-002
  2.1128076e-002
  6.0552839e-003
 -8.8738992e-003
 -8.5015371e-003
 -3.2567058e-003
 -5.0893145e-003
 -8.1577197e-003
 -8.1569052e-003
 -1.3870706e-002
 -2.2706992e-002
 -1.4013490e-002
  1.2985324e-002
  2.5595854e-002
  7.3287267e-003
 -9.4047662e-003
  8.5590002e-003
  4.1146282e-002
  4.4663900e-002
  1.5054596e-002
 -1.4170329e-002
 -2.2626148e-002
 -1.8025747e-002
 -1.0659047e-002
 -3.2597905e-003
 -3.3885501e-005
 -1.6035232e-003
  2.5554492e-003
  1.7890648e-002
  3.0791225e-002
  2.7107046e-002
  1.1926130e-002
 -3.5648584e-003
 -1.8022894e-002
 -2.7684311e-002
 -1.8981637e-002
  7.5455928e-003
  2.5907823e-002
  1.7705514e-002
 -1.5181878e-003
 -7.4545981e-003
  1.4078454e-003
  1.5386884e-002
  3.3610439e-002
  5.1751317e-002
  5.3559388e-002
  3.8189801e-002
  3.3224634e-002
  5.5376995e-002
  7.9939509e-002
  7.6196281e-002
  5.2863158e-002
  3.9390950e-002
  3.9772694e-002
  3.5033444e-002
  1.8612161e-002
  1.0623139e-003
 -1.1162879e-002
 -1.7802216e-002
 -1.4444438e-002
 -4.9275657e-004
  1.1273690e-002
  9.8646415e-003
  6.0090018e-004
 -9.7271561e-003
 -2.9664530e-002
 -6.8857070e-002
 -1.1105130e-001
 -1.0391855e-001
  2.7098237e-002
  3.2458182e-001
  7.0879773e-001
  9.5572402e-001
  8.5416906e-001
  4.3409039e-001
 -1.5226962e-002
 -2.1291405e-001
 -1.4427828e-001
 -1.0620878e-002
  3.0403887e-002
 -1.6559668e-003
 -1.5040658e-002
  1.1469987e-002
  2.9905540e-002
  1.4068945e-002
 -6.0008645e-003
  5.3246392e-003
  3.9188610e-002
  5.8233221e-002
  5.0310726e-002
  4.3343180e-002
  5.9198730e-002
  7.6623257e-002
  6.6443274e-002
  4.6683526e-002
  6.2160389e-002
  1.1407601e-001
  1.5654999e-001
  1.6936603e-001
  1.8439034e-001
  2.2273264e-001
  2.5650613e-001
  2.6195689e-001
  2.6405270e-001
  2.8969506e-001
  3.1547260e-001
  3.0610625e-001
  2.7486514e-001
  2.5937511e-001
  2.5853099e-001
  2.3970302e-001
  1.9588511e-001
  1.5245321e-001
  1.2275871e-001
  9.4867825e-002
  6.1827753e-002
  3.3998502e-002
  1.8939838e-002
  1.1756813e-002
  6.5160582e-003
  1.2098658e-003
 -6.0029244e-003
 -1.3110786e-002
 -1.2572941e-002
 -2.7830512e-003
  7.3941116e-003
  1.1772002e-002
  1.2018204e-002
  6.6289591e-003
 -6.4323185e-003
 -1.3496551e-002
  2.6424722e-003
  2.8905182e-002
  3.1045551e-002
  5.8714250e-003
 -1.0225575e-002
  1.2328342e-003
  1.3105666e-002
  3.4171589e-003
 -5.7323244e-003
  9.2701887e-003
  2.6951344e-002
  1.4677059e-002
 -1.6374742e-002
 -2.9131628e-002
 -1.6485725e-002
 -3.6953171e-003
 -6.7656481e-003
 -1.9285352e-002
 -3.1701861e-002
 -3.7802679e-002
 -3.0568149e-002
 -1.3039486e-002
 -3.6115683e-003
 -1.2656586e-002
 -2.6137033e-002
 -2.8081615e-002
 -2.3361979e-002
 -2.1990673e-002
 -1.9462763e-002
 -1.1426985e-002
 -9.8338591e-003
 -2.4509037e-002
 -4.4070130e-002
 -5.2525688e-002
 -4.9558175e-002
 -4.0636106e-002
 -2.6144627e-002
 -1.4021598e-002
 -2.0586055e-002
 -4.2687968e-002
 -5.2393325e-002
 -3.6733670e-002
 -1.8500926e-002
 -1.8848166e-002
 -2.4365027e-002
 -1.3220906e-002
  9.1695970e-003
  2.4148855e-002
  2.9409316e-002
  3.2482384e-002
  3.2868953e-002
  3.0346498e-002
  3.3121388e-002
  4.1551349e-002
  4.3913033e-002
  4.0701831e-002
  4.6034588e-002
  5.1032802e-002
  2.1263377e-002
 -4.5498290e-002
 -9.4505582e-002
 -8.0782601e-002
 -3.2524310e-002
 -1.0932303e-002
 -2.8548262e-002
 -4.6402638e-002
 -3.8702372e-002
 -2.3277716e-002
 -3.2004831e-002
 -7.5166627e-002
 -1.2324311e-001
 -1.0047679e-001
  7.8654084e-002
  4.1376686e-001
  7.5139000e-001
  8.6156223e-001
  6.3066867e-001
  1.8886326e-001
 -1.7638427e-001
 -2.6372428e-001
 -1.2652897e-001
  1.3880911e-002
  2.1195504e-002
 -3.1243526e-002
 -9.3492306e-003
  7.5198742e-002
  9.3540124e-002
  7.1036689e-003
 -6.8969356e-002
 -3.9096351e-002
  3.8094059e-002
  5.3849373e-002
  1.1633292e-002
 -1.2282308e-003
  4.0590261e-002
  7.6276691e-002
  6.9248067e-002
  5.8369514e-002
  8.5221306e-002
  1.3329695e-001
  1.6510423e-001
  1.7749196e-001
  1.9222032e-001
  2.1633390e-001
  2.3749912e-001
  2.4871437e-001
  2.5831866e-001
  2.7349865e-001
  2.8393228e-001
  2.7193292e-001
  2.4010763e-001
  2.1517299e-001
  2.1170314e-001
  2.0623984e-001
  1.7020430e-001
  1.1633016e-001
  8.0204828e-002
  6.3556092e-002
  3.6533126e-002
 -4.3276277e-003
 -2.7232918e-002
 -2.2968107e-002
 -2.3004075e-002
 -4.1940349e-002
 -4.9681374e-002
 -2.7436410e-002
 -6.8412916e-003
 -1.9128546e-002
 -4.3425050e-002
 -4.3747394e-002
 -2.5654043e-002
 -1.6033480e-002
 -1.3078969e-002
  1.0316884e-003
  1.6633751e-002
  8.4210536e-003
 -1.8964512e-002
 -3.4583350e-002
 -2.6760784e-002
 -1.4899450e-002
 -1.6938549e-002
 -2.8539620e-002
 -3.5028885e-002
 -2.8465190e-002
 -1.3963013e-002
 -6.6479022e-003
 -1.5766842e-002
 -2.9574214e-002
 -2.9993442e-002
 -2.2015536e-002
 -2.5518175e-002
 -3.6367077e-002
 -2.7545739e-002
  1.9901392e-003
  1.5023920e-002
 -9.4344888e-003
 -4.2009741e-002
 -4.6433260e-002
 -2.9026128e-002
 -1.9627840e-002
 -2.6958799e-002
 -3.8341797e-002
 -4.4442418e-002
 -4.1533493e-002
 -2.6402522e-002
 -8.1090274e-003
 -7.1809770e-003
 -2.6758759e-002
 -4.3410059e-002
 -4.0430495e-002
 -2.7638978e-002
 -1.4963176e-002
  5.2546769e-003
  3.1846417e-002
  4.0679782e-002
  2.0842356e-002
 -8.5342192e-004
  3.4391459e-003
  2.3780429e-002
  3.4197718e-002
  3.1180052e-002
  2.5090752e-002
  1.3715908e-002
 -8.0449754e-003
 -2.7426307e-002
 -2.8613611e-002
 -1.7899929e-002
 -1.3783541e-002
 -2.1567112e-002
 -3.3155251e-002
 -4.1255906e-002
 -4.2125149e-002
 -3.7477710e-002
 -4.3073448e-002
 -7.8361270e-002
 -1.3370292e-001
 -1.5578701e-001
 -7.1303921e-002
  1.6977464e-001
  5.3724162e-001
  8.7001692e-001
  9.2771927e-001
  5.9535696e-001
  6.0139291e-002
 -3.0542952e-001
 -2.9982046e-001
 -8.1929272e-002
  4.6215188e-002
 -1.4131500e-002
 -1.0971476e-001
 -9.0180133e-002
  6.2190476e-003
  4.8745191e-002
  4.7639125e-003
 -3.9529238e-002
 -1.7624105e-002
  3.1765673e-002
  3.5866475e-002
 -2.8134942e-003
 -1.4723362e-002
  3.0837086e-002
  8.1199278e-002
  8.1974969e-002
  5.7534571e-002
  6.6851458e-002
  1.1164815e-001
  1.4672189e-001
  1.6435595e-001
  1.9994680e-001
  2.5268558e-001
  2.7285101e-001
  2.4790837e-001
  2.3360964e-001
  2.6506843e-001
  2.9672100e-001
  2.7562239e-001
  2.2408448e-001
  1.9634644e-001
  1.9128874e-001
  1.6636195e-001
  1.1458724e-001
  7.0206923e-002
  4.7364329e-002
  2.4284171e-002
 -1.0477039e-002
 -3.7485723e-002
 -3.9950564e-002
 -2.8752189e-002
 -2.5284304e-002
 -3.7204735e-002
 -5.6153277e-002
 -6.8284960e-002
 -6.5683464e-002
 -5.3313810e-002
 -4.2593993e-002
 -3.7612949e-002
 -3.5424617e-002
 -3.6857998e-002
 -4.2619239e-002
 -4.2727305e-002
 -2.9866828e-002
 -1.8928118e-002
 -2.7689799e-002
 -4.2183181e-002
 -3.3503903e-002
 -7.7041754e-003
 -7.5897567e-004
 -2.0517276e-002
 -3.6104781e-002
 -3.3961794e-002
 -3.8252152e-002
 -5.8814519e-002
 -6.6027463e-002
 -4.3357510e-002
 -2.1311543e-002
 -2.6707431e-002
 -3.7068868e-002
 -2.3112463e-002
 -3.4244635e-003
 -1.4087649e-002
 -4.7437971e-002
 -6.4317309e-002
 -5.3652909e-002
 -4.0522161e-002
 -4.1225301e-002
 -4.4311568e-002
 -3.6794986e-002
 -2.4171942e-002
 -2.0413459e-002
 -3.1458952e-002
 -4.9477346e-002
 -5.8989907e-002
 -5.4295448e-002
 -4.9860804e-002
 -5.9952504e-002
 -7.1408675e-002
 -5.9254130e-002
 -2.8575267e-002
 -1.2143136e-002
 -2.2404652e-002
 -3.6722055e-002
 -3.7243364e-002
 -3.2130866e-002
 -2.7226382e-002
 -1.2238713e-002
  1.0075197e-002
  1.6148798e-002
  1.7019964e-003
 -4.0057448e-003
  1.4877036e-002
  3.2047441e-002
  2.1683986e-002
 -2.2127573e-004
 -4.5949166e-003
  6.1378028e-003
  9.8735556e-003
  5.6083631e-004
 -1.3318403e-002
 -2.8349550e-002
 -4.2081983e-002
 -4.5634150e-002
 -3.8889907e-002
 -3.6101095e-002
 -4.1155401e-002
 -3.7949000e-002
 -2.1823807e-002
 -1.8733525e-002
 -5.3135668e-002
 -1.1111296e-001
 -1.4485039e-001
 -9.4120927e-002
  9.4251829e-002
  4.1689485e-001
  7.5202965e-001
  8.9171886e-001
  7.0380555e-001
  2.7593132e-001
 -1.3098031e-001
 -2.9355274e-001
 -1.9862093e-001
 -2.0581346e-002
  6.0896106e-002
  2.0899252e-002
 -2.8635637e-002
 -1.5210861e-003
  5.8123519e-002
  5.8286040e-002
  9.8089650e-004
 -2.6067964e-002
  1.3583437e-002
  5.6561977e-002
  4.6654402e-002
  1.6866536e-002
  2.3632801e-002
  5.7409998e-002
  7.3089734e-002
  7.0628716e-002
  8.8106216e-002
  1.3433996e-001
  1.7906916e-001
  2.0246046e-001
  2.1403501e-001
  2.2529977e-001
  2.3571892e-001
  2.4619246e-001
  2.6238105e-001
  2.8284084e-001
  2.9842317e-001
  3.0216714e-001
  2.9167677e-001
  2.6780670e-001
  2.3659573e-001
  2.0393715e-001
  1.6691442e-001
  1.2289720e-001
  8.4348566e-002
  6.5111997e-002
  5.5359618e-002
  3.5611965e-002
  1.2735068e-002
  9.8950657e-003
  2.0766112e-002
  1.2461326e-002
 -1.8865429e-002
 -3.6219840e-002
 -1.9583930e-002
  4.1859755e-003
  8.6333775e-003
  7.1149170e-003
  2.0130220e-002
  3.6245528e-002
  3.4039184e-002
  1.7758940e-002
  5.0213776e-003
 -2.9467308e-004
 -1.3486011e-003
  5.0467667e-003
  1.6375544e-002
  1.9890676e-002
  1.6388254e-002
  2.5096095e-002
  4.8386131e-002
  5.7638219e-002
  3.4582703e-002
  2.8775894e-003
 -3.3448695e-003
  1.7596531e-002
  4.2750383e-002
  5.5685989e-002
  5.1779475e-002
  3.1961129e-002
  9.4440077e-003
  5.1874308e-003
  2.0526883e-002
  3.1018862e-002
  2.0712827e-002
  4.3560506e-003
  3.2157302e-003
  1.7491634e-002
  3.3925028e-002
  4.2026447e-002
  3.4008282e-002
  9.4950142e-003
 -1.1948821e-002
 -5.7608539e-003
  2.3092734e-002
  4.4470417e-002
  4.6272522e-002
  4.4329524e-002
  4.4660077e-002
  3.1949483e-002
  6.7690670e-003
 -3.4781515e-003
  1.1351561e-002
  2.4139894e-002
  1.5803635e-002
  8.2084604e-003
  2.7131346e-002
  6.0278512e-002
  7.8285690e-002
  7.5089612e-002
  6.4069689e-002
  5.4109133e-002
  5.0391623e-002
  5.9915547e-002
  7.7373825e-002
  8.3266558e-002
  7.1367158e-002
  5.9150881e-002
  5.7874342e-002
  5.4692667e-002
  3.9152158e-002
  2.4077762e-002
  2.2869071e-002
  2.6844364e-002
  2.2168485e-002
  1.1259085e-002
  3.2294192e-003
  2.6992921e-004
  3.3463554e-003
  1.1072425e-002
  5.3492573e-003
 -3.3349121e-002
 -7.7969565e-002
 -4.4424696e-002
  1.4307229e-001
  4.6833808e-001
  7.9733908e-001
  9.3556600e-001
  7.5561611e-001
  3.2744705e-001
 -8.6752703e-002
 -2.3769553e-001
 -1.1702941e-001
  5.9502512e-002
  1.0671741e-001
  4.9227281e-002
  2.2649064e-002
  7.1007352e-002
  1.1589029e-001
  9.3428829e-002
  3.9166826e-002
  2.3660320e-002
  5.7770923e-002
  9.2767436e-002
  9.2383500e-002
  7.5223341e-002
  8.1497845e-002
  1.1436599e-001
  1.3636504e-001
  1.2816056e-001
  1.2334968e-001
  1.5992581e-001
  2.1920544e-001
  2.5207131e-001
  2.5356703e-001
  2.6416588e-001
  2.9836798e-001
  3.2381672e-001
  3.2240363e-001
  3.2171794e-001
  3.4327499e-001
  3.6274089e-001
  3.4994611e-001
  3.1365210e-001
  2.7790831e-001
  2.4307087e-001
  1.9910552e-001
  1.5428395e-001
  1.2332123e-001
  1.0385681e-001
  8.5801992e-002
  6.8805962e-002
  5.5398773e-002
  4.3820206e-002
  3.8475537e-002
  4.6774039e-002
  5.6889082e-002
  4.4778821e-002
  1.4251523e-002
  9.0603953e-004
  2.1228632e-002
  4.6843280e-002
  4.7860476e-002
  3.4351574e-002
  3.2867889e-002
  4.5048392e-002
  5.2938449e-002
  4.8716435e-002
  3.9184858e-002
  3.2799354e-002
  3.5280440e-002
  4.6122523e-002
  5.2864102e-002
  4.4152363e-002
  3.0515701e-002
  3.1398689e-002
  4.1456138e-002
  3.7099941e-002
  1.8518532e-002
  1.2701115e-002
  2.8224538e-002
  4.1333587e-002
  3.7499921e-002
  3.2100985e-002
  3.5549063e-002
  3.2318038e-002
  1.3624070e-002
 -9.0716325e-006
  9.6781330e-003
  2.9998782e-002
  3.9665891e-002
  3.7184981e-002
  3.0514911e-002
  2.0999000e-002
  1.2770307e-002
  1.5980927e-002
  2.7075078e-002
  2.8097726e-002
  1.6968597e-002
  1.3890207e-002
  2.6608388e-002
  3.6693604e-002
  3.3630190e-002
  3.4607759e-002
  5.3885596e-002
  7.7661478e-002
  8.7002164e-002
  8.4306791e-002
  8.1678306e-002
  8.2514207e-002
  8.6719361e-002
  9.4592301e-002
  9.7138025e-002
  8.4225292e-002
  6.7347708e-002
  6.7790900e-002
  7.7563366e-002
  6.4579256e-002
  2.5575319e-002
 -1.4979715e-003
  7.2105263e-003
  2.7553525e-002
  2.7674356e-002
  1.1495080e-002
  5.8942994e-004
 -1.3465947e-003
 -5.1868564e-003
 -1.8351771e-002
 -4.1587408e-002
 -5.3438085e-002
  1.5094297e-002
  2.4192805e-001
  5.9993019e-001
  9.0084855e-001
  9.1600501e-001
  5.8929813e-001
  1.2157741e-001
 -1.8397368e-001
 -1.8332623e-001
 -4.1135445e-003
  1.1217361e-001
  7.1085579e-002
 -8.6848619e-003
  8.4867505e-003
  8.9133445e-002
  1.0558023e-001
  4.0604362e-002
  7.1391895e-003
  6.6153363e-002
  1.3658905e-001
  1.2814795e-001
  7.2866376e-002
  5.7437504e-002
  8.8694620e-002
  1.0638941e-001
  9.5026431e-002
  1.0186883e-001
  1.4902298e-001
  1.9619263e-001
  2.0649497e-001
  2.0110959e-001
  2.2294407e-001
  2.7292381e-001
  3.0973707e-001
  3.0576774e-001
  2.8166966e-001
  2.7688004e-001
  2.9745940e-001
  3.1221238e-001
  3.0048473e-001
  2.7767587e-001
  2.5960223e-001
  2.3068375e-001
  1.7664898e-001
  1.2378262e-001
  1.0463722e-001
  1.0189765e-001
  7.4296934e-002
  2.8476084e-002
  1.1220329e-002
  3.1151200e-002
  4.5609778e-002
  3.4727143e-002
  3.0254055e-002
  5.0259474e-002
  6.0684741e-002
  3.4233308e-002
  1.6144365e-003
  5.3479010e-003
  3.6150628e-002
  5.3530832e-002
  4.5401192e-002
  3.2168751e-002
  2.9014996e-002
  3.4847718e-002
  4.6692585e-002
  6.0196944e-002
  6.4689965e-002
  5.5676861e-002
  4.3607385e-002
  3.8764739e-002
  3.9084127e-002
  4.0885176e-002
  4.6365846e-002
  5.2821011e-002
  5.0905097e-002
  4.0687612e-002
  3.3380766e-002
  3.2863636e-002
  3.2669429e-002
  3.2519749e-002
  3.7680986e-002
  4.2213177e-002
  3.6027083e-002
  2.7444141e-002
  3.2635124e-002
  4.4384091e-002
  4.1022143e-002
  2.5019150e-002
  1.9471190e-002
  2.6819150e-002
  2.8548828e-002
  2.7359031e-002
  4.6428172e-002
  7.8805824e-002
  8.3262493e-002
  4.7506746e-002
  1.3674562e-002
  1.8938955e-002
  4.7749039e-002
  6.6725105e-002
  7.2290105e-002
  7.6030668e-002
  7.2524045e-002
  5.2894427e-002
  3.0139943e-002
  2.3257133e-002
  2.9845628e-002
  3.5402244e-002
  3.7658230e-002
  4.4660182e-002
  5.8724374e-002
  7.4633152e-002
  8.5604375e-002
  8.6441026e-002
  8.1204882e-002
  8.5676279e-002
  1.0597008e-001
  1.2093156e-001
  1.0910145e-001
  8.5318572e-002
  7.9165888e-002
  8.3225006e-002
  6.3013189e-002
  1.9599997e-002
 -2.5742874e-003
  1.8026833e-002
  4.7994496e-002
  5.1193119e-002
  3.5762564e-002
  2.7535094e-002
  2.8595637e-002
  2.4870680e-002
  8.9525994e-003
 -2.1057239e-002
 -5.2756016e-002
 -2.7447260e-002
  1.4265708e-001
  4.7222491e-001
  8.2073037e-001
  9.5985241e-001
  7.6274336e-001
  3.3794743e-001
 -3.8938087e-002
 -1.5647587e-001
 -4.6219767e-002
  8.2420912e-002
  8.6345811e-002
  2.4446598e-002
  2.6822685e-002
  9.5919436e-002
  1.2158371e-001
  6.4011138e-002
  1.2806628e-002
  4.2379707e-002
  1.0311614e-001
  1.0966012e-001
  6.9097214e-002
  5.3657093e-002
  8.6187607e-002
  1.2145038e-001
  1.2659674e-001
  1.2172382e-001
  1.3684946e-001
  1.7034099e-001
  2.0199628e-001
  2.2322058e-001
  2.4196373e-001
  2.6696329e-001
  2.9437746e-001
  3.1126130e-001
  3.1302006e-001
  3.1098160e-001
  3.1517001e-001
  3.1859237e-001
  3.1133009e-001
  2.9851982e-001
  2.8546953e-001
  2.5843460e-001
  2.0650004e-001
  1.5078220e-001
  1.2024804e-001
  1.0770511e-001
  8.4896405e-002
  5.3263028e-002
  3.9200312e-002
  4.3185721e-002
  3.8677497e-002
  2.3187358e-002
  2.3237400e-002
  4.0536397e-002
  4.0789646e-002
  1.1319841e-002
 -1.4239562e-002
 -8.3383239e-003
  1.3029369e-002
  2.6087357e-002
  3.4813855e-002
  4.6893949e-002
  4.8813316e-002
  3.2608553e-002
  1.9335789e-002
  2.7946054e-002
  4.2788422e-002
  3.8071721e-002
  1.7617296e-002
  7.0269920e-003
  1.8318408e-002
  4.0237852e-002
  5.4590818e-002
  5.0840350e-002
  3.3502242e-002
  2.0218753e-002
  2.1722956e-002
  2.4816813e-002
  1.1336078e-002
 -1.0080621e-002
 -1.3705588e-002
  4.4931922e-003
  2.3255692e-002
  2.9550667e-002
  2.8404195e-002
  2.1050856e-002
  3.8082699e-003
 -1.1165448e-002
 -6.0915416e-003
  1.0017479e-002
  1.2102110e-002
  3.1952734e-003
  1.0871125e-002
  3.5808866e-002
  4.4470647e-002
  2.3377220e-002
  1.2972502e-003
  2.3041030e-003
  1.3122141e-002
  1.5033177e-002
  1.4579611e-002
  2.1459592e-002
  2.4517311e-002
  1.2025113e-002
 -5.8237343e-003
 -1.3163336e-002
 -9.2902967e-003
 -3.7114510e-004
  1.1315453e-002
  2.0010837e-002
  1.7443952e-002
  9.1503052e-003
  1.1172382e-002
  2.5563822e-002
  3.9163025e-002
  4.8503092e-002
  6.2166898e-002
  7.7181273e-002
  7.9997662e-002
  7.3298421e-002
  7.3313672e-002
  7.7892528e-002
  6.7911340e-002
  4.4626255e-002
  3.3436767e-002
  4.3365982e-002
  5.4341196e-002
  5.2857184e-002
  4.8548531e-002
  4.5835018e-002
  3.1491540e-002
  3.7435987e-003
 -1.5393794e-002
 -1.1533289e-002
  2.3844361e-003
  8.7093530e-003
  3.4334292e-003
 -1.6515172e-002
 -5.5538418e-002
 -9.0782924e-002
 -5.9154854e-002
  1.0584040e-001
  4.1249252e-001
  7.6465096e-001
  9.7151759e-001
  8.5928556e-001
  4.4362729e-001
 -2.0953291e-002
 -2.4120570e-001
 -1.5949758e-001
  1.9071778e-002
  8.2636468e-002
  2.8267405e-002
 -8.7328364e-003
  3.4274231e-002
  8.7511867e-002
  7.4787358e-002
  1.7217217e-002
 -1.1898714e-002
  1.1541319e-002
  4.4563978e-002
  4.7218741e-002
  3.4577891e-002
  4.4367324e-002
  7.5249496e-002
  9.0939934e-002
  8.3664331e-002
  9.2138339e-002
  1.3821470e-001
  1.8631679e-001
  2.0002424e-001
  2.0251854e-001
  2.3295033e-001
  2.7217996e-001
  2.7283483e-001
  2.4604972e-001
  2.4894695e-001
  2.8713215e-001
  3.0104476e-001
  2.6359690e-001
  2.2329221e-001
  2.2190008e-001
  2.2889512e-001
  1.9733606e-001
  1.3825213e-001
  9.4450149e-002
  7.3008737e-002
  4.9032650e-002
  1.7202227e-002
 -1.6277200e-003
  1.6806001e-003
  1.1261216e-002
  1.0855262e-002
  2.4794634e-003
 -6.7251716e-004
  9.0916027e-003
  2.3661455e-002
  2.5117676e-002
  7.7516821e-003
 -1.0749522e-002
 -1.1168402e-002
  1.8269426e-003
  1.1391065e-002
  1.5266695e-002
  2.0456119e-002
  2.2640123e-002
  1.6300946e-002
  1.3942441e-002
  2.5669445e-002
  3.1463716e-002
  9.1392696e-003
 -2.0535553e-002
 -1.8344463e-002
  9.8147774e-003
  2.0336755e-002
  2.9479511e-003
 -5.5226361e-003
  1.3011656e-002
  2.8224992e-002
  1.6006162e-002
 -1.7493709e-003
  2.5364486e-003
  1.7484630e-002
  1.6124842e-002
 -2.0029664e-003
 -1.7033735e-002
 -1.8271249e-002
 -8.2152946e-003
  7.4154785e-003
  1.9744044e-002
  2.0648928e-002
  1.4842439e-002
  1.3814892e-002
  1.5500554e-002
  8.5306894e-003
 -3.1453257e-003
 -2.8476263e-003
  1.0228668e-002
  1.8969418e-002
  1.6593568e-002
  1.2792519e-002
  1.1028090e-002
  5.3147161e-003
  5.5855244e-005
  6.2244854e-003
  1.7495953e-002
  1.8200997e-002
  1.4561327e-002
  2.7855591e-002
  5.6045113e-002
  7.3539716e-002
  7.0748846e-002
  6.2151736e-002
  5.4019110e-002
  3.8624710e-002
  2.3772330e-002
  3.1432291e-002
  5.9435123e-002
  7.8660039e-002
  7.5950209e-002
  6.6727005e-002
  5.8903822e-002
  4.1074532e-002
  1.6161913e-002
  8.5666110e-003
  2.2479616e-002
  2.8349647e-002
  9.6380841e-003
 -8.4207258e-003
  1.7526134e-003
  2.7070440e-002
  3.0631347e-002
 -6.5082835e-003
 -7.0153994e-002
 -1.1133002e-001
 -4.6019520e-002
  2.0068590e-001
  5.9668628e-001
  9.5067258e-001
  1.0132440e+000
  6.8861590e-001
  1.6221171e-001
 -2.1909442e-001
 -2.4593857e-001
 -3.3406401e-002
  1.2509113e-001
  8.7347522e-002
 -1.7342231e-002
 -1.2696866e-002
  7.9377445e-002
  1.0668830e-001
  3.2148069e-002
 -2.3409542e-002
  1.9458654e-002
  8.7288085e-002
  8.7289546e-002
  4.8592834e-002
  5.5378115e-002
  1.0809702e-001
  1.3690127e-001
  1.1912273e-001
  1.0310787e-001
  1.2325303e-001
  1.6002736e-001
  1.9505409e-001
  2.5028059e-001
  3.4330622e-001
  4.3661308e-001
  4.6925633e-001
  4.3332502e-001
  3.8695755e-001
  3.7930080e-001
  3.8759040e-001
  3.5698309e-001
  2.8794683e-001
  2.3923376e-001
  2.3851794e-001
  2.4140346e-001
  2.0651826e-001
  1.6287350e-001
  1.5676306e-001
  1.7135176e-001
  1.5941366e-001
  1.3000067e-001
  1.3331327e-001
  1.6917539e-001
  1.8184542e-001
  1.5160657e-001
  1.2420620e-001
  1.3184672e-001
  1.4624123e-001
  1.3718183e-001
  1.2445543e-001
  1.3654114e-001
  1.5896919e-001
  1.6126195e-001
  1.4630818e-001
  1.3849795e-001
  1.4274894e-001
  1.4484519e-001
  1.3920946e-001
  1.3299321e-001
  1.3128358e-001
  1.3388523e-001
  1.3906541e-001
  1.4147845e-001
  1.3554719e-001
  1.2581061e-001
  1.2358808e-001
  1.3166206e-001
  1.4275183e-001
  1.5052733e-001
  1.5056902e-001
  1.3844391e-001
  1.2202436e-001
  1.2333168e-001
  1.4727168e-001
  1.6283121e-001
  1.4229759e-001
  1.0544091e-001
  9.2926868e-002
  1.0832228e-001
  1.2272945e-001
  1.2606808e-001
  1.3194828e-001
  1.3791340e-001
  1.2654008e-001
  1.0675263e-001
  1.0871798e-001
  1.3188369e-001
  1.4189236e-001
  1.2836836e-001
  1.2295333e-001
  1.4586168e-001
  1.7440243e-001
  1.8299215e-001
  1.7949289e-001
  1.8129560e-001
  1.8470052e-001
  1.7938448e-001
  1.7064550e-001
  1.6877832e-001
  1.7304129e-001
  1.7792437e-001
  1.7970990e-001
  1.7077490e-001
  1.4564546e-001
  1.1683409e-001
  1.0500379e-001
  1.1035728e-001
  1.1366247e-001
  1.0654221e-001
  9.9348763e-002
  9.9221681e-002
  1.0269569e-001
  1.0784347e-001
  1.0912597e-001
  8.6181111e-002
  3.4251896e-002
  1.1954976e-002
  1.1991405e-001
  3.9953360e-001
  7.5367416e-001
  9.8140765e-001
  9.1511906e-001
  5.6390769e-001
  1.3969024e-001
 -9.7698313e-002
 -6.5857746e-002
  8.2522791e-002
  1.5251715e-001
  1.1914261e-001
  9.6878177e-002
  1.4283304e-001
  1.8906477e-001
  1.7420162e-001
  1.4191462e-001
  1.5982644e-001
  2.0952974e-001
  2.2194633e-001
  1.8567472e-001
  1.5757090e-001
  1.7592071e-001
  2.1340982e-001
  2.2420192e-001
  2.0588317e-001
  1.9810166e-001
  2.3101059e-001
  2.8982405e-001
  3.3557816e-001
  3.5311049e-001
  3.6150302e-001
  3.7570822e-001
  3.8379615e-001
  3.7725470e-001
  3.7623750e-001
  3.9703542e-001
  4.1697235e-001
  4.0585167e-001
  3.7449637e-001
  3.5418711e-001
  3.4336397e-001
  3.1748504e-001
  2.8008759e-001
  2.5608636e-001
  2.3941994e-001
  1.9854093e-001
  1.3798659e-001
  1.0467960e-001
  1.2045180e-001
  1.5173499e-001
  1.6168595e-001
  1.5341942e-001
  1.4444340e-001
  1.3482637e-001
  1.2291945e-001
  1.2360223e-001
  1.4685265e-001
  1.7628885e-001
  1.8694783e-001
  1.7259349e-001
  1.4664789e-001
  1.2809114e-001
  1.2907637e-001
  1.4290560e-001
  1.4623584e-001
  1.2866684e-001
  1.1304898e-001
  1.2609976e-001
  1.5791903e-001
  1.7580365e-001
  1.6941148e-001
  1.5386146e-001
  1.3715090e-001
  1.1765611e-001
  1.0727830e-001
  1.2016918e-001
  1.4030760e-001
  1.3679592e-001
  1.1201002e-001
  9.8548547e-002
  1.0673850e-001
  1.1283339e-001
  1.0460921e-001
  1.0074829e-001
  1.1384422e-001
  1.2748971e-001
  1.2434989e-001
  1.1125202e-001
  1.0494610e-001
  1.1424149e-001
  1.4159111e-001
  1.7941279e-001
  2.0187180e-001
  1.8597923e-001
  1.4613148e-001
  1.2416798e-001
  1.4019946e-001
  1.7344899e-001
  1.9286141e-001
  1.8611665e-001
  1.5969265e-001
  1.3190234e-001
  1.2322301e-001
  1.3273218e-001
  1.3118091e-001
  1.0029475e-001
  6.6808415e-002
  6.7398948e-002
  9.1902428e-002
  9.8899576e-002
  8.0559404e-002
  6.9644515e-002
  7.9963890e-002
  8.0411167e-002
  4.1747092e-002
 -1.2858451e-002
 -7.0198183e-003
  1.4829720e-001
  4.7868251e-001
  8.6233314e-001
  1.0515702e+000
  8.6852848e-001
  4.0914377e-001
 -8.1639936e-003
 -1.3915512e-001
 -2.6549640e-002
  1.0654627e-001
  1.2378379e-001
  7.9431333e-002
  8.2521085e-002
  1.3799915e-001
  1.6139127e-001
  1.1387109e-001
  6.0637914e-002
  7.6699032e-002
  1.3831961e-001
  1.5897441e-001
  1.1855232e-001
  9.0955630e-002
  1.2682150e-001
  1.7596386e-001
  1.7257009e-001
  1.4255429e-001
  1.5862368e-001
  2.2327558e-001
  2.7330643e-001
  2.8604536e-001
  3.0235921e-001
  3.4013471e-001
  3.6046146e-001
  3.4151077e-001
  3.2189312e-001
  3.3761626e-001
  3.6528126e-001
  3.6396529e-001
  3.3679827e-001
  3.1522203e-001
  3.0740928e-001
  2.9486548e-001
  2.6478486e-001
  2.2002567e-001
  1.6697964e-001
  1.1340595e-001
  7.2973112e-002
  5.8315136e-002
  6.9506086e-002
  9.1700358e-002
  1.0292988e-001
  9.1332411e-002
  7.1286404e-002
  7.0804473e-002
  9.2769943e-002
  1.0571269e-001
  8.8705681e-002
  6.4091923e-002
  6.2046440e-002
  7.4774167e-002
  7.7378481e-002
  7.4142043e-002
  8.5453888e-002
  1.0339060e-001
  1.0266864e-001
  8.7289082e-002
  8.3871292e-002
  9.3328035e-002
  9.1566923e-002
  7.6355584e-002
  7.0568211e-002
  7.7108516e-002
  7.3378959e-002
  5.6264845e-002
  5.1104082e-002
  6.6169677e-002
  7.6845566e-002
  6.7832059e-002
  5.6241531e-002
  5.8268422e-002
  6.3957241e-002
  6.0934194e-002
  5.6717664e-002
  6.1081145e-002
  6.6847116e-002
  6.2757770e-002
  5.0931270e-002
  4.2147188e-002
  4.4427191e-002
  5.8526003e-002
  7.4293796e-002
  7.5669415e-002
  6.1764941e-002
  5.3685316e-002
  6.4766799e-002
  7.7805049e-002
  7.2329882e-002
  5.8025479e-002
  5.4810658e-002
  5.6987844e-002
  5.0231444e-002
  4.8707787e-002
  7.5585722e-002
  1.1616795e-001
  1.3229381e-001
  1.1977561e-001
  1.1057360e-001
  1.1854738e-001
  1.2444181e-001
  1.1872243e-001
  1.1821102e-001
  1.2907980e-001
  1.2888472e-001
  1.0070089e-001
  5.9334843e-002
  3.1400868e-002
  2.8407394e-002
  4.4657944e-002
  6.3194174e-002
  6.3208609e-002
  4.0869363e-002
  2.0242172e-002
  2.3563105e-002
  3.6491212e-002
  2.5062855e-002
 -1.8202994e-002
 -6.1412944e-002
 -4.9191344e-002
  8.5788665e-002
  3.8277368e-001
  7.6361389e-001
  1.0079700e+000
  9.0996011e-001
  4.9722224e-001
  4.4156557e-002
 -1.7393280e-001
 -1.1954886e-001
  2.8603370e-002
  9.5201648e-002
  6.4211207e-002
  3.2429273e-002
  6.1808335e-002
  1.1332483e-001
  1.2007694e-001
  8.5494691e-002
  7.1404442e-002
  1.0025984e-001
  1.2298320e-001
  1.0259141e-001
  7.7692848e-002
  1.0015219e-001
  1.4914135e-001
  1.6409371e-001
  1.4040553e-001
  1.3156707e-001
  1.6445292e-001
  2.1076401e-001
  2.4411719e-001
  2.7070086e-001
  2.9369121e-001
  2.9745315e-001
  2.8407954e-001
  2.8419682e-001
  3.1196413e-001
  3.4206277e-001
  3.4814638e-001
  3.3526233e-001
  3.1858991e-001
  2.9622238e-001
  2.6051567e-001
  2.1751313e-001
  1.8025190e-001
  1.5441393e-001
  1.3741978e-001
  1.2155818e-001
  9.8053644e-002
  6.9524402e-002
  5.3407214e-002
  5.9294837e-002
  7.1454904e-002
  6.9982388e-002
  5.7900083e-002
  4.8905811e-002
  4.3153692e-002
  3.7819548e-002
  4.4842469e-002
  7.0141020e-002
  9.0979254e-002
  8.5346113e-002
  6.9080558e-002
  6.9963155e-002
  8.0132086e-002
  7.3326589e-002
  5.6342291e-002
  5.8375718e-002
  7.5935391e-002
  7.6035563e-002
  5.5259405e-002
  4.8800668e-002
  7.1859831e-002
  9.4285532e-002
  8.8038998e-002
  6.4975584e-002
  5.1211529e-002
  5.1765493e-002
  5.6098847e-002
  5.7355240e-002
  5.3659375e-002
  4.6315729e-002
  4.3653789e-002
  5.3001557e-002
  6.7324207e-002
  7.3037320e-002
  6.7956868e-002
  5.8318624e-002
  4.6729910e-002
  3.8639725e-002
  4.7029713e-002
  7.0093796e-002
  8.0035595e-002
  5.9375713e-002
  3.2069387e-002
  2.9097759e-002
  4.0248466e-002
  3.5831733e-002
  2.1447379e-002
  2.8486937e-002
  5.7098681e-002
  7.2597150e-002
  6.0089631e-002
  4.2993435e-002
  4.1755464e-002
  4.9037173e-002
  5.2904081e-002
  5.4735188e-002
  5.7375089e-002
  6.0610350e-002
  7.1689829e-002
  9.6619972e-002
  1.2083827e-001
  1.2252812e-001
  1.0407736e-001
  8.7235440e-002
  8.1461147e-002
  8.1334584e-002
  8.7559988e-002
  1.0159886e-001
  1.0586699e-001
  8.1209797e-002
  4.1270746e-002
  1.8732880e-002
  1.9746315e-002
  2.2834958e-002
  2.0477702e-002
  2.7788943e-002
  4.7459525e-002
  5.8454089e-002
  4.6253553e-002
  1.7662166e-002
 -1.8352689e-002
 -5.4339516e-002
 -5.6376572e-002
  4.1789910e-002
  2.8562002e-001
  6.2561931e-001
  8.9738211e-001
  9.0820888e-001
  6.0084300e-001
  1.4970401e-001
 -1.5649685e-001
 -1.7409348e-001
 -2.3175033e-002
  8.1556910e-002
  7.1923952e-002
  4.1236973e-002
  6.3226192e-002
  9.6386031e-002
  7.8769023e-002
  3.0220626e-002
  1.3386715e-002
  4.2390807e-002
  7.7981737e-002
  8.9944302e-002
  8.6494949e-002
  8.9537297e-002
  1.0555187e-001
  1.2251325e-001
  1.2715477e-001
  1.2421966e-001
  1.3458406e-001
  1.6908214e-001
  2.1360228e-001
  2.4937577e-001
  2.7443095e-001
  2.9231364e-001
  2.9782252e-001
  2.9311053e-001
  2.9875032e-001
  3.2416545e-001
  3.4429250e-001
  3.3233300e-001
  2.9859115e-001
  2.6823682e-001
  2.4001072e-001
  2.0127728e-001
  1.6535192e-001
  1.5260830e-001
  1.4719206e-001
  1.1632753e-001
  6.6142708e-002
  3.5006681e-002
  3.3689905e-002
  3.5008983e-002
  2.4907987e-002
  2.1355703e-002
  3.3915411e-002
  4.2754849e-002
  3.2308082e-002
  1.6676373e-002
  1.6897667e-002
  3.3130717e-002
  4.9418268e-002
  5.1679477e-002
  3.7824604e-002
  2.2279557e-002
  2.6639261e-002
  5.2705465e-002
  7.4400079e-002
  7.1993221e-002
  5.9471820e-002
  5.7784105e-002
  5.9761214e-002
  4.9393232e-002
  3.7698386e-002
  4.4511829e-002
  5.7815865e-002
  4.9268779e-002
  2.2864791e-002
  1.0512277e-002
  2.2130011e-002
  3.5422697e-002
  3.4736601e-002
  2.7329824e-002
  2.0532427e-002
  1.3143610e-002
  1.0370620e-002
  1.9313174e-002
  2.9577036e-002
  2.4606449e-002
  1.0615088e-002
  8.3863322e-003
  1.9236006e-002
  2.5547014e-002
  2.2340270e-002
  2.1944851e-002
  2.9239240e-002
  3.7123847e-002
  4.4147979e-002
  5.3823455e-002
  6.0965382e-002
  6.0181223e-002
  6.0233533e-002
  6.8179543e-002
  7.0977984e-002
  5.7952861e-002
  4.7994371e-002
  6.4264924e-002
  9.3235476e-002
  1.0135840e-001
  8.3280577e-002
  6.0575287e-002
  4.1299752e-002
  1.6499725e-002
 -8.3357278e-003
 -1.5042657e-002
 -6.0180969e-003
 -2.9973450e-003
 -1.1330359e-002
 -1.4891308e-002
 -7.9244361e-003
 -5.3201953e-003
 -1.9396369e-002
 -4.5176948e-002
 -5.8819751e-002
 -7.4125805e-003
  1.7600951e-001
  4.9262545e-001
  8.0673592e-001
  9.0820689e-001
  6.9063043e-001
  2.6734270e-001
 -1.0524294e-001
 -2.3171183e-001
 -1.2405025e-001
  3.8471841e-002
  9.5391836e-002
  5.0074623e-002
  1.9264340e-002
  5.9250359e-002
  1.0071119e-001
  7.1568568e-002
  1.2995375e-002
  1.2193614e-002
  6.6312483e-002
  9.3834617e-002
  6.5298089e-002
  4.1371420e-002
  7.0958830e-002
  1.2166076e-001
  1.3978229e-001
  1.2809343e-001
  1.2859990e-001
  1.5961244e-001
  2.0261593e-001
  2.3529062e-001
  2.5282190e-001
  2.6265561e-001
  2.7224335e-001
  2.8161072e-001
  2.8635575e-001
  2.8898656e-001
  2.9852962e-001
  3.1256239e-001
  3.1290909e-001
  2.8941594e-001
  2.5278268e-001
  2.1294919e-001
  1.6587583e-001
  1.1665780e-001
  8.8920175e-002
  8.8049801e-002
  8.2329416e-002
  5.0249888e-002
  1.9816456e-002
  2.4470834e-002
  4.4554607e-002
  3.6613023e-002
  3.2698545e-003
 -1.3756053e-002
 -6.1557539e-004
  1.6144652e-002
  2.0897625e-002
  2.7095642e-002
  4.0802146e-002
  4.7316423e-002
  4.2203073e-002
  4.1154178e-002
  5.0210034e-002
  5.5190826e-002
  4.8371683e-002
  4.0594611e-002
  4.0574994e-002
  4.3463880e-002
  4.3798076e-002
  4.1840754e-002
  3.7076000e-002
  3.1552271e-002
  3.4767426e-002
  4.8163251e-002
  5.3506390e-002
  3.6712520e-002
  1.3883527e-002
  1.1955751e-002
  3.1989639e-002
  5.1986232e-002
  5.5828971e-002
  4.0344581e-002
  8.9857221e-003
 -1.8996290e-002
 -1.1367750e-002
  3.6665406e-002
  8.0788127e-002
  7.6742273e-002
  3.7165894e-002
  9.3933490e-003
  1.2366207e-002
  2.9846125e-002
  5.1223793e-002
  7.8171500e-002
  9.8398076e-002
  9.3937975e-002
  7.5564209e-002
  7.3706111e-002
  9.4047453e-002
  1.1304997e-001
  1.1707068e-001
  1.1499660e-001
  1.1061820e-001
  9.2564754e-002
  5.7706071e-002
  2.1711479e-002
  1.2804770e-003
  9.3528671e-004
  1.5030427e-002
  2.8916164e-002
  2.6366478e-002
  1.0936946e-002
  7.1578661e-003
  2.2925864e-002
  2.7164119e-002
 -1.0927988e-002
 -6.9363849e-002
 -7.5262101e-002
  5.1584921e-002
  3.4975508e-001
  7.5402546e-001
  1.0566700e+000
  1.0105735e+000
  5.6920332e-001
  6.8952086e-003
 -2.9593133e-001
 -2.1489513e-001
  2.6673859e-002
  1.3956385e-001
  7.0096260e-002
 -1.9296958e-002
 -1.4226539e-003
  7.4916514e-002
  9.3927151e-002
  4.1452258e-002
  6.9941687e-003
  4.2762428e-002
  9.0483046e-002
  7.6241496e-002
  2.7090918e-002
  3.1393184e-002
  1.0227533e-001
  1.5585958e-001
  1.3821661e-001
  1.0110329e-001
  1.1423769e-001
  1.6576425e-001
  2.0412964e-001
  2.2740315e-001
  2.6372004e-001
  2.9852039e-001
  2.9580781e-001
  2.7384567e-001
  2.8550213e-001
  3.2656974e-001
  3.3443832e-001
  2.8717712e-001
  2.3870687e-001
  2.3432256e-001
  2.4652436e-001
  2.2530683e-001
  1.7053273e-001
  1.1937219e-001
  8.8461624e-002
  6.2897480e-002
  3.1552435e-002
  5.8332867e-003
  1.1413514e-003
  1.3295802e-002
  2.0562895e-002
  9.3238943e-003
 -7.8751925e-003
 -9.5144001e-003
  2.8868692e-003
  7.9432991e-003
  2.4347544e-004
 -2.5527429e-003
  4.8480368e-003
  4.1323775e-003
 -8.0489541e-003
 -5.0334219e-003
  2.2761817e-002
  4.0177958e-002
  1.8930131e-002
 -1.3889654e-002
 -1.6673296e-002
  4.1292896e-003
  1.4222316e-002
  1.1014249e-002
  1.5830530e-002
  2.3254030e-002
  8.7378994e-003
 -2.0348321e-002
 -2.9739353e-002
 -1.4352198e-002
 -5.4474437e-003
 -1.7512717e-002
 -2.7926248e-002
 -1.8219914e-002
 -1.5731885e-003
  2.2987818e-003
 -6.4400904e-003
 -1.6614312e-002
 -2.1661999e-002
 -1.9182788e-002
 -8.7377942e-003
  6.7653762e-003
  2.5324184e-002
  4.5874731e-002
  5.7517683e-002
  4.4925927e-002
  1.7267651e-002
  1.0928186e-002
  4.3241506e-002
  8.3614600e-002
  9.3847080e-002
  7.6341453e-002
  5.5865132e-002
  3.5677608e-002
  5.6189973e-003
 -2.3531194e-002
 -3.1186995e-002
 -2.2732481e-002
 -2.0727919e-002
 -2.8394848e-002
 -3.2357956e-002
 -3.2489525e-002
 -3.8173727e-002
 -4.4514046e-002
 -4.4798765e-002
 -5.6800867e-002
 -9.6181242e-002
 -1.1990569e-001
 -3.2810971e-002
  2.2419150e-001
  5.8914902e-001
  8.8030684e-001
  9.0003501e-001
  5.9062945e-001
  1.1997895e-001
 -2.2333283e-001
 -2.7182099e-001
 -1.1365159e-001
  3.4628414e-002
  5.9922929e-002
  1.7816999e-002
  1.6618695e-003
  2.4186761e-002
  4.1402544e-002
  3.2607873e-002
  1.7310258e-002
  1.6497039e-002
  2.7940835e-002
  3.7432848e-002
  4.0985687e-002
  5.0811154e-002
  7.6359929e-002
  1.0405047e-001
  1.1206787e-001
  1.0648881e-001
  1.1835792e-001
  1.5702103e-001
  1.9628162e-001
  2.2109475e-001
  2.5211948e-001
  2.9909946e-001
  3.2707457e-001
  3.0711143e-001
  2.7108559e-001
  2.7117893e-001
  3.0475031e-001
  3.2474202e-001
  3.1062821e-001
  2.8256777e-001
  2.5285460e-001
  2.1021741e-001
  1.5462250e-001
  1.0769043e-001
  8.0582542e-002
  6.1018146e-002
  3.7955196e-002
  1.5777143e-002
  1.5908338e-003
 -2.2373506e-003
  5.2478720e-003
  1.7458867e-002
  1.8044060e-002
  2.4361414e-003
 -9.3439519e-003
 -8.2599701e-004
  1.3628963e-002
  1.1807755e-002
 -1.0308081e-003
 -5.1939444e-003
 -6.4434700e-004
 -2.0100087e-005
  2.2498424e-004
  1.2146965e-002
  2.8560519e-002
  3.1462994e-002
  2.2108108e-002
  1.7384397e-002
  2.2095247e-002
  2.7375363e-002
  2.9713630e-002
  3.0991800e-002
  2.7887327e-002
  1.9439008e-002
  1.4073202e-002
  1.2936176e-002
  2.6882603e-003
 -1.7753180e-002
 -2.5206740e-002
 -9.2134296e-003
  3.2246534e-003
 -1.1999050e-002
 -3.4452545e-002
 -3.0935464e-002
 -8.1472737e-003
  3.5762575e-003
  2.5103504e-003
  1.1729843e-002
  3.4082680e-002
  5.0140386e-002
  5.5201059e-002
  6.2060464e-002
  7.0319857e-002
  6.6653986e-002
  5.4496855e-002
  5.2310615e-002
  6.0804113e-002
  5.8660463e-002
  3.3320677e-002
 -4.6838347e-003
 -3.7555279e-002
 -5.3289735e-002
 -4.7599313e-002
 -2.9237393e-002
 -1.7307780e-002
 -1.9720688e-002
 -2.4105483e-002
 -2.1518820e-002
 -2.3685535e-002
 -4.3942277e-002
 -7.7679848e-002
 -1.0683092e-001
 -9.2045963e-002
  4.3907656e-002
  3.5840088e-001
  7.6223518e-001
  1.0030197e+000
  8.6889064e-001
  4.2063367e-001
 -3.8030600e-002
 -2.4182547e-001
 -1.8209979e-001
 -4.3904254e-002
  1.7575466e-002
  4.6020061e-004
 -1.2076133e-002
  1.5964290e-002
  3.9294140e-002
  1.4328802e-002
 -2.7622777e-002
 -2.2596608e-002
  3.0591535e-002
  6.7303682e-002
  5.3163566e-002
  2.9457195e-002
  4.0283766e-002
  6.6289427e-002
  7.0540513e-002
  6.7749123e-002
  9.6396645e-002
  1.4999374e-001
  1.8927924e-001
  2.0640485e-001
  2.2655081e-001
  2.5491317e-001
  2.7004418e-001
  2.6721813e-001
  2.6529769e-001
  2.6920318e-001
  2.6386906e-001
  2.4853170e-001
  2.4201411e-001
  2.4774351e-001
  2.4277699e-001
  2.0974151e-001
  1.5845700e-001
  1.1084668e-001
  8.0361198e-002
  6.6570427e-002
  5.6309440e-002
  3.3510990e-002
 -3.3787891e-004
 -2.3086001e-002
 -1.9920945e-002
 -2.3053881e-003
  1.1933022e-002
  2.0242380e-002
  2.3782596e-002
  1.5426262e-002
 -2.6157801e-003
 -1.0391129e-002
  1.7507230e-004
  8.3813186e-003
 -1.3983183e-003
 -1.2102775e-002
 -4.2048938e-003
  1.0435566e-002
  1.2391587e-002
  8.8920567e-003
  1.3713164e-002
  1.5196240e-002
 -1.7088034e-003
 -2.0904288e-002
 -1.8397410e-002
 -3.7779874e-003
 -2.2464109e-003
 -9.5302477e-003
 -2.6542144e-003
  1.4742041e-002
  1.6472249e-002
 -1.3972342e-003
 -1.5035848e-002
 -1.1131473e-002
 -4.6422122e-004
  6.2579249e-003
  9.3910928e-003
  7.5723265e-003
 -2.5768817e-003
 -1.4068160e-002
 -1.5675204e-002
 -8.3864466e-003
 -1.1932321e-003
  3.0990325e-003
  4.8055844e-003
  4.8334327e-004
 -8.1965538e-003
 -1.2024047e-002
 -1.2094846e-002
 -2.1632365e-002
 -3.7815610e-002
 -3.6365414e-002
 -1.0835249e-002
  1.0647396e-002
  9.9303954e-003
  1.0397474e-002
  3.5173323e-002
  6.2811902e-002
  6.0973391e-002
  4.0680130e-002
  3.6436882e-002
  4.9125606e-002
  4.9947984e-002
  3.0965632e-002
  1.2649396e-002
  5.8409323e-003
  7.1948867e-004
 -8.4877470e-003
 -1.7128272e-002
 -2.5761357e-002
 -3.6424349e-002
 -3.7854715e-002
 -1.9349865e-002
  5.1537235e-003
  1.0233686e-002
 -8.2975809e-003
 -3.5017016e-002
 -6.2350109e-002
 -9.0459874e-002
 -9.6217000e-002
 -2.0914777e-002
  1.9278576e-001
  5.2991524e-001
  8.5141838e-001
  9.4268581e-001
  6.8576743e-001
  2.1167157e-001
 -1.7287113e-001
 -2.6075816e-001
 -1.2329758e-001
  1.4582100e-002
  3.1799426e-002
 -1.1998541e-002
 -1.9082678e-002
  1.6070314e-002
  3.5880145e-002
  1.5494558e-002
 -1.2591624e-002
 -9.3061828e-003
  2.4144811e-002
  5.1131411e-002
  4.4003287e-002
  1.8455410e-002
  1.4144778e-002
  4.2820460e-002
  7.6789284e-002
  9.4527257e-002
  1.0998822e-001
  1.4120631e-001
  1.7763211e-001
  2.0091769e-001
  2.1410783e-001
  2.2703455e-001
  2.3583682e-001
  2.4056310e-001
  2.5802767e-001
  2.9003069e-001
  3.0371776e-001
  2.7500628e-001
  2.2925307e-001
  2.0484030e-001
  1.9647285e-001
  1.7125579e-001
  1.2489529e-001
  8.3408757e-002
  5.8905569e-002
  4.0100764e-002
  2.1653620e-002
  1.0568182e-002
  5.4988622e-003
 -3.6621831e-003
 -1.7523556e-002
 -2.9004410e-002
 -3.7252166e-002
 -4.1761844e-002
 -3.3585830e-002
 -1.1914108e-002
  3.2620369e-003
 -4.1379755e-003
 -2.1485810e-002
 -2.7326711e-002
 -2.1769850e-002
 -1.6589311e-002
 -1.1123435e-002
 -9.9472672e-004
  4.1948306e-003
 -4.2734964e-003
 -1.4857965e-002
 -1.3439632e-002
 -7.0844629e-003
 -9.2146469e-003
 -1.5523250e-002
 -1.5557170e-002
 -1.3523151e-002
 -1.7427448e-002
 -2.2928862e-002
 -2.6451119e-002
 -3.5930698e-002
 -4.9870690e-002
 -4.7915886e-002
 -2.4238229e-002
 -6.8359686e-003
 -1.8255560e-002
 -4.0154086e-002
 -4.4644053e-002
 -3.7717200e-002
 -3.9920068e-002
 -4.5117839e-002
 -3.3636125e-002
 -1.0359210e-002
  5.1107912e-003
  1.4038835e-002
  3.0979529e-002
  5.0559551e-002
  5.3803785e-002
  4.0796874e-002
  2.8349728e-002
  2.1421499e-002
  1.2894556e-002
  4.8421299e-003
  5.0154401e-003
  7.6527475e-003
 -2.9487515e-004
 -1.9082502e-002
 -3.9348944e-002
 -5.6055331e-002
 -6.3897975e-002
 -5.3054374e-002
 -2.7515300e-002
 -1.2538247e-002
 -2.4833488e-002
 -5.1474559e-002
 -7.7566805e-002
 -1.1250330e-001
 -1.5600801e-001
 -1.4906362e-001
  5.0059322e-004
  3.1874716e-001
  6.8926632e-001
  8.8944982e-001
  7.4689141e-001
  3.1111397e-001
 -1.3834486e-001
 -3.1964749e-001
 -2.1055242e-001
 -4.0059136e-002
 -6.3408925e-003
 -7.2628603e-002
 -8.3796672e-002
 -4.2411258e-003
  5.7619559e-002
  2.9000113e-002
 -3.1397527e-002
 -3.6468614e-002
  1.0512628e-002
  4.3382134e-002
  3.2852179e-002
  1.1727958e-002
  1.7189664e-002
  4.5164910e-002
  6.6838204e-002
  7.1365652e-002
  7.7937601e-002
  1.0602798e-001
  1.4762516e-001
  1.8197446e-001
  2.0723379e-001
  2.3437061e-001
  2.5640885e-001
  2.5639775e-001
  2.4635578e-001
  2.5862044e-001
  2.8868889e-001
  2.8933830e-001
  2.4123148e-001
  1.8733216e-001
  1.6874240e-001
  1.6573599e-001
  1.3855655e-001
  9.2306971e-002
  5.8773711e-002
  4.0033960e-002
  1.5220249e-002
 -1.3764070e-002
 -2.6180495e-002
 -2.1758950e-002
 -1.8517839e-002
 -1.9087819e-002
 -1.2615530e-002
 -3.1190530e-003
 -4.6165696e-003
 -1.3433092e-002
 -1.3678109e-002
 -5.7216142e-003
 -3.9757024e-003
 -1.0510488e-002
 -1.2739492e-002
 -3.2370758e-003
  1.4953843e-002
  3.5071012e-002
  4.4797413e-002
  3.0917923e-002
  1.3926563e-003
 -1.2877713e-002
  4.0639663e-003
  2.9296446e-002
  3.2537311e-002
  1.4721278e-002
 -3.0236835e-003
 -1.0859705e-002
 -1.0748704e-002
 -2.3969919e-003
  1.1193634e-002
  1.8716876e-002
  1.7136959e-002
  1.6765537e-002
  1.7776553e-002
  5.3304432e-003
 -1.7675867e-002
 -2.2350868e-002
  1.3113590e-003
  2.1412228e-002
  1.1293967e-002
 -9.5265849e-003
 -1.0462241e-002
  2.6338605e-003
  9.0354069e-003
  1.6284442e-002
  4.2247166e-002
  7.3004005e-002
  7.9437164e-002
  6.4655000e-002
  5.7207943e-002
  6.3971667e-002
  6.4593466e-002
  5.0372906e-002
  3.7769143e-002
  4.0643590e-002
  5.1789624e-002
  5.4971325e-002
  4.1444854e-002
  1.6193855e-002
 -3.7924228e-003
 -4.8516260e-003
  4.5323881e-003
  3.9626947e-003
 -6.5113769e-003
 -6.3259931e-003
  7.0719018e-003
  7.0852025e-003
 -2.3625735e-002
 -6.9971162e-002
 -1.0398958e-001
 -8.7400677e-002
  4.9704462e-002
  3.5921836e-001
  7.5130151e-001
  9.7839922e-001
  8.3754854e-001
  3.9664616e-001
 -4.0939939e-002
 -2.1784701e-001
 -1.3795170e-001
  1.3843316e-003
  4.3580079e-002
  4.8065677e-003
 -6.9880978e-003
  4.6958644e-002
  9.4800779e-002
  6.7938279e-002
  4.5924218e-003
 -4.9423318e-003
  4.9661028e-002
  8.7919774e-002
  6.3553646e-002
  3.0093453e-002
  5.0689020e-002
  1.0342049e-001
  1.2712888e-001
  1.1831106e-001
  1.2333982e-001
  1.5845828e-001
  1.9459841e-001
  2.1292932e-001
  2.2689637e-001
