  9.1179599e-004
  8.4967518e-003
  7.0102786e-003
 -7.3261940e-003
 -1.1654338e-002
  5.9610981e-003
  1.6171941e-002
 -3.9173983e-003
 -2.1031513e-002
  6.1922020e-004
  2.5941838e-002
  3.9218135e-003
 -3.1227703e-002
 -1.0546609e-002
  3.6597990e-002
  2.0762780e-002
 -3.9087848e-002
 -3.1374295e-002
  4.2303950e-002
  4.7050993e-002
 -4.2287014e-002
 -6.7329513e-002
  3.7710751e-002
  9.4326998e-002
 -2.5078042e-002
 -1.3450588e-001
 -8.2587700e-003
  2.1902522e-001
  2.2262852e-001
 -5.1472092e-003
 -1.3942927e-001
 -2.9855183e-002
  9.7816934e-002
  4.1453589e-002
 -7.1785108e-002
 -4.7481821e-002
  4.8301578e-002
  3.9812769e-002
 -4.6860192e-002
 -5.2911755e-002
  3.2412635e-002
  7.7300091e-002
  4.2794768e-002
  1.8203845e-002
  3.8631520e-002
  3.8101476e-002
 -7.1442155e-003
 -3.2660438e-002
 -6.8153690e-003
  1.8240780e-002
  4.9275071e-003
 -1.3897874e-002
 -5.4780251e-003
  1.1608638e-002
  1.2218301e-002
  1.9101033e-003
 -6.3940751e-003
 -1.6856518e-002
 -1.7567662e-002
 -5.3728206e-003
  1.6143179e-003
 -6.3240803e-003
 -1.4575570e-002
 -2.6081475e-002
 -8.0268578e-002
 -1.7184070e-001
 -1.7747191e-001
  4.7153253e-002
  4.7043086e-001
  8.4612341e-001
  9.1933657e-001
  6.5634768e-001
  2.5621739e-001
 -3.8030810e-002
 -1.2403253e-001
 -7.0198595e-002
 -4.8181880e-003
  1.1212486e-002
  8.7743265e-003
  2.9848397e-002
  6.0327998e-002
  6.1867988e-002
  3.6947447e-002
  2.0778499e-002
  2.4225206e-002
  2.8058088e-002
  2.7213829e-002
  3.7626113e-002
  5.8543047e-002
  6.8148159e-002
  6.1872327e-002
  6.0198695e-002
  7.3485241e-002
  9.1887267e-002
  1.1425901e-001
  1.5310479e-001
  2.0396619e-001
  2.4226480e-001
  2.5982154e-001
  2.7544302e-001
  2.9993492e-001
  3.1834234e-001
  3.1847752e-001
  3.1301414e-001
  3.1953996e-001
  3.3491109e-001
  3.3956668e-001
  3.1733368e-001
  2.6836474e-001
  2.1112260e-001
  1.6776526e-001
  1.3923482e-001
  1.0569770e-001
  6.1445502e-002
  2.9274492e-002
  2.2692156e-002
  1.8782674e-002
 -3.7429513e-003
 -2.4217476e-002
 -1.4340932e-002
  8.3850638e-003
  5.8927893e-003
 -1.5963013e-002
 -1.7004926e-002
  8.8731351e-003
  2.4997991e-002
  1.4703469e-002
  5.2661875e-003
  1.8005040e-002
  3.5957867e-002
  3.7931341e-002
  3.1187430e-002
  3.1894567e-002
  3.7867460e-002
  3.6935930e-002
  2.5943629e-002
  1.1607314e-002
  4.3360312e-003
  1.2199020e-002
  2.8215059e-002
  2.9332307e-002
  4.7173953e-003
 -2.3811926e-002
 -2.9565050e-002
 -1.8127140e-002
 -1.2991733e-002
 -1.6740964e-002
 -1.5228261e-002
 -9.1534712e-003
 -9.7840416e-003
 -1.1667583e-002
 -2.0784380e-003
  9.6102168e-003
  5.4392051e-003
 -5.2936433e-003
  6.1511349e-004
  1.6310144e-002
  1.2373001e-002
 -1.2932135e-002
 -2.9187431e-002
 -2.2602578e-002
 -1.2988053e-002
 -1.5915274e-002
 -2.1190261e-002
 -1.7261534e-002
 -8.5652697e-003
 -1.5320227e-003
  1.8445483e-003
 -5.8742951e-003
 -2.7024355e-002
 -3.7470727e-002
 -6.8304144e-003
  5.4071929e-002
  9.5529240e-002
  8.8249692e-002
  5.5022831e-002
  3.3592329e-002
  3.2092110e-002
  3.4851269e-002
  3.3369546e-002
  3.3642882e-002
  3.9005672e-002
  3.8538181e-002
  1.7563042e-002
 -1.9892598e-002
 -4.6498865e-002
 -4.1853162e-002
 -2.2123137e-002
 -1.8768795e-002
 -3.1813557e-002
 -3.4920558e-002
 -2.5182066e-002
 -2.5339417e-002
 -3.3997565e-002
 -3.1826971e-002
 -4.6994313e-002
 -1.2654605e-001
 -1.9580790e-001
 -5.0666936e-002
  3.9065418e-001
  8.7984377e-001
  1.0275349e+000
  7.1927816e-001
  2.3620385e-001
 -6.6950677e-002
 -1.0225306e-001
 -2.4724006e-002
  2.0239953e-002
  2.0389864e-002
  1.6782955e-002
  1.6508314e-002
  8.2080592e-003
  3.6938102e-004
  7.0707955e-003
  1.9666671e-002
  1.8238576e-002
  2.8725255e-003
 -4.5962279e-003
  9.3882001e-003
  3.2472539e-002
  4.7095730e-002
  5.7055181e-002
  7.5825353e-002
  9.6206480e-002
  1.0008888e-001
  1.0000849e-001
  1.3503340e-001
  2.1026863e-001
  2.7592494e-001
  2.9149329e-001
  2.7872347e-001
  2.8060426e-001
  2.9921115e-001
  3.1219165e-001
  3.2204857e-001
  3.4191035e-001
  3.5244790e-001
  3.2375888e-001
  2.6961059e-001
  2.3151360e-001
  2.1478724e-001
  1.8740217e-001
  1.3913110e-001
  9.4016033e-002
  6.2385175e-002
  2.8201613e-002
 -7.8502441e-003
 -1.7986086e-002
  4.8102829e-003
  2.6401934e-002
  1.7419617e-002
 -9.4357815e-003
 -2.4403074e-002
 -1.9120290e-002
 -5.2821117e-003
  6.1143783e-003
  1.0861006e-002
  9.4185484e-003
  6.6198026e-003
  5.8744506e-003
  4.5302859e-003
  2.6887239e-003
  8.3169540e-003
  2.1706263e-002
  2.7035575e-002
  1.5375859e-002
  1.8455526e-003
  1.1974067e-003
  3.0589117e-003
 -6.0407678e-003
 -1.4510350e-002
 -7.2656815e-003
  2.4474355e-003
 -4.8117360e-003
 -1.6380604e-002
 -7.7749425e-003
  1.0361344e-002
  4.7258411e-003
 -2.6536340e-002
 -4.9473515e-002
 -4.3035132e-002
 -1.9449753e-002
  2.5539383e-003
  1.4050612e-002
  7.5773508e-003
 -1.6655453e-002
 -3.7197689e-002
 -3.2598457e-002
 -1.3746981e-002
 -7.7880002e-003
 -1.5306497e-002
 -1.4025707e-002
 -4.1319594e-004
  6.1694905e-003
  5.1230442e-004
 -2.5609975e-004
  1.0547642e-002
  1.7249813e-002
  8.8460135e-003
 -5.2581701e-003
 -1.1379743e-002
 -5.7296704e-003
  7.6066114e-003
  1.7737832e-002
  1.1702163e-002
 -6.6597908e-003
 -1.3772069e-002
  6.0562376e-004
  1.4285953e-002
  9.2013948e-003
  6.5446846e-003
  3.3928911e-002
  7.5163080e-002
  9.0630618e-002
  7.6364167e-002
  6.3523982e-002
  6.5557307e-002
  6.5654815e-002
  5.5716003e-002
  4.9773629e-002
  5.4330542e-002
  5.7515385e-002
  5.2714838e-002
  4.5765020e-002
  3.6198762e-002
  1.7429426e-002
 -2.7103793e-003
 -6.8669450e-003
  4.1016316e-003
  1.0917014e-002
  4.9832086e-003
 -3.3731547e-003
 -8.6223791e-003
 -2.4861107e-002
 -6.9463705e-002
 -1.2933608e-001
 -1.3330513e-001
  2.6334573e-002
  3.8826413e-001
  8.1069276e-001
  1.0236606e+000
  8.6519586e-001
  4.5637912e-001
  8.9831190e-002
 -5.0179704e-002
 -1.3594930e-002
  4.6005007e-002
  4.9516668e-002
  2.1894420e-002
  1.0464741e-002
  2.6311343e-002
  4.9536283e-002
  5.8510367e-002
  5.0636048e-002
  4.1704605e-002
  4.4514170e-002
  5.4110716e-002
  6.1147010e-002
  6.7200913e-002
  7.3696937e-002
  7.1949749e-002
  6.3243875e-002
  7.1035618e-002
  1.0876177e-001
  1.5279163e-001
  1.7565401e-001
  1.8909691e-001
  2.2101711e-001
  2.6483298e-001
  2.9040782e-001
  2.9565723e-001
  3.0619470e-001
  3.2656341e-001
  3.3246863e-001
  3.1567598e-001
  2.9983444e-001
  3.0133374e-001
  3.0343381e-001
  2.8170405e-001
  2.3564872e-001
  1.8598617e-001
  1.5267618e-001
  1.3788392e-001
  1.2247452e-001
  8.5514736e-002
  3.5410785e-002
  6.9684865e-003
  1.4826742e-002
  2.9966057e-002
  2.1600293e-002
  3.9464526e-004
 -5.2101561e-003
  5.8286020e-003
  1.5857899e-002
  2.3045949e-002
  3.3831649e-002
  3.7510305e-002
  2.3691205e-002
  1.0723687e-002
  2.0181751e-002
  3.6562961e-002
  3.1309303e-002
  1.5295364e-002
  2.4003208e-002
  5.5725043e-002
  6.9395022e-002
  4.6987500e-002
  1.7449711e-002
  1.0141572e-002
  1.9030263e-002
  2.4338020e-002
  2.1824506e-002
  1.8196111e-002
  1.6836256e-002
  1.7047325e-002
  1.5944119e-002
  1.0375776e-002
  5.4868627e-003
  1.2781869e-002
  2.8383435e-002
  2.8890655e-002
  6.0422746e-003
 -1.3120952e-002
 -3.3264199e-003
  2.0320401e-002
  2.7023529e-002
  1.4953486e-002
  1.6896331e-003
 -1.0735592e-002
 -2.6254569e-002
 -2.7527692e-002
  6.9516523e-004
  3.1726617e-002
  2.3265508e-002
 -1.9915780e-002
 -4.9800466e-002
 -4.1791265e-002
 -1.8950335e-002
 -5.7547483e-003
  4.6943504e-003
  2.5845550e-002
  5.0116260e-002
  6.1463620e-002
  5.7502499e-002
  4.8539788e-002
  4.5400364e-002
  5.1843409e-002
  6.1588194e-002
  6.5445478e-002
  6.5899041e-002
  7.3235643e-002
  8.1796400e-002
  7.0304904e-002
  3.6765187e-002
  8.2062840e-003
 -2.0028516e-004
 -7.0752546e-003
 -2.4974922e-002
 -3.1816455e-002
 -1.1826842e-002
  8.8204332e-003
  4.6365271e-003
 -6.0184859e-003
 -7.6856672e-003
 -3.8638721e-002
 -1.2009445e-001
 -1.5210227e-001
  2.3577996e-002
  4.1857343e-001
  8.1474538e-001
  9.4016256e-001
  7.1756533e-001
  3.1973027e-001
 -1.5906807e-004
 -1.1223699e-001
 -6.6935522e-002
  7.0468069e-003
  3.4588607e-002
  2.8265371e-002
  2.4814472e-002
  3.0243190e-002
  3.4324068e-002
  3.9730808e-002
  4.9638026e-002
  5.1555100e-002
  4.0809016e-002
  3.8509094e-002
  5.8739118e-002
  7.9974528e-002
  7.9621879e-002
  7.4831351e-002
  9.3418606e-002
  1.2395132e-001
  1.3569908e-001
  1.3484826e-001
  1.5774713e-001
  2.1299710e-001
  2.6912727e-001
  2.9938656e-001
  3.0593923e-001
  3.0112510e-001
  2.9564564e-001
  3.0386601e-001
  3.3132478e-001
  3.5708714e-001
  3.5392796e-001
  3.2375775e-001
  2.8997890e-001
  2.6119977e-001
  2.2800602e-001
  1.8894812e-001
  1.5258193e-001
  1.1840168e-001
  8.1324405e-002
  5.0625063e-002
  4.0412170e-002
  4.5999498e-002
  5.1127357e-002
  5.1176716e-002
  4.8699277e-002
  3.7729856e-002
  1.6360335e-002
  2.3731204e-003
  9.9587901e-003
  2.2633448e-002
  1.7091542e-002
  2.5249515e-003
  6.3789823e-003
  3.0168643e-002
  4.9697473e-002
  5.3009395e-002
  4.9665021e-002
  4.7457757e-002
  4.6386936e-002
  5.0297141e-002
  5.9510259e-002
  5.8771012e-002
  3.7342706e-002
  1.3515049e-002
  1.3854160e-002
  3.4859948e-002
  4.9738818e-002
  4.6516425e-002
  3.5765336e-002
  2.7408528e-002
  2.2904797e-002
  2.4412848e-002
  3.1426850e-002
  3.4975351e-002
  3.1041951e-002
  2.8341670e-002
  2.8925006e-002
  1.9745158e-002
  2.5919931e-004
 -5.5110967e-003
  1.3786370e-002
  3.4027106e-002
  3.6421570e-002
  4.2105099e-002
  7.2618402e-002
  1.0489920e-001
  1.0701647e-001
  9.3484744e-002
  9.7576284e-002
  1.0899164e-001
  9.2424973e-002
  5.6017641e-002
  4.4962206e-002
  6.8390347e-002
  8.5946112e-002
  7.2890153e-002
  4.9632045e-002
  3.6609510e-002
  2.6094687e-002
  1.3671810e-002
  1.4518679e-002
  2.8075138e-002
  2.5768932e-002
 -4.3599692e-004
 -1.4265734e-002
  3.2305526e-003
 -3.3121611e-004
 -7.9317097e-002
 -1.6264642e-001
 -6.5169010e-002
  3.0711936e-001
  7.7739103e-001
  1.0026872e+000
  8.0652856e-001
  3.6902632e-001
  3.3019108e-002
 -4.7285720e-002
  5.1199329e-003
  2.3372303e-002
 -1.3592968e-003
  9.3799476e-003
  5.8402093e-002
  7.9715246e-002
  5.8668077e-002
  4.6586321e-002
  6.6173656e-002
  8.1900715e-002
  6.9712890e-002
  5.2501896e-002
  5.3558789e-002
  6.4077981e-002
  7.0553114e-002
  7.5920448e-002
  8.2429087e-002
  8.5425013e-002
  9.2245496e-002
  1.1957036e-001
  1.6630379e-001
  2.1282019e-001
  2.4868388e-001
  2.7829865e-001
  3.0070912e-001
  3.0838142e-001
  3.0588663e-001
  3.0750838e-001
  3.1634783e-001
  3.2374893e-001
  3.2503671e-001
  3.1841537e-001
  2.9638921e-001
  2.5743288e-001
  2.1701859e-001
  1.8786308e-001
  1.6040297e-001
  1.2293213e-001
  8.7224680e-002
  7.0194108e-002
  6.2894746e-002
  4.4223441e-002
  1.6128047e-002
 -1.0624658e-004
  4.3755355e-003
  1.9532676e-002
  3.3681911e-002
  3.8766167e-002
  2.9899644e-002
  1.7290193e-002
  2.3222090e-002
  4.8589522e-002
  6.1661478e-002
  4.2310097e-002
  1.6160294e-002
  1.7599930e-002
  3.9633346e-002
  5.1688844e-002
  4.8771404e-002
  4.8364359e-002
  5.2276238e-002
  4.7013070e-002
  3.3903152e-002
  2.7117442e-002
  2.7785352e-002
  2.7225854e-002
  2.7498187e-002
  3.3207028e-002
  3.4120709e-002
  2.1937131e-002
  1.1867642e-002
  2.0348108e-002
  3.4582837e-002
  3.3269719e-002
  2.3948602e-002
  2.8139560e-002
  4.1411937e-002
  4.1847879e-002
  2.9260659e-002
  2.2248084e-002
  2.2258828e-002
  1.3629367e-002
 -3.3458714e-003
 -9.7781053e-003
  1.6909849e-003
  1.9275864e-002
  3.2526255e-002
  3.8466132e-002
  3.3297061e-002
  2.1044312e-002
  2.3034164e-002
  5.3514382e-002
  9.1739277e-002
  1.0366412e-001
  8.7005908e-002
  7.0018046e-002
  6.8818460e-002
  7.1440742e-002
  6.5778321e-002
  6.0786913e-002
  7.1887503e-002
  9.6661482e-002
  1.1178883e-001
  9.4773386e-002
  5.1625520e-002
  1.7168551e-002
  1.5332783e-002
  2.7571153e-002
  2.2624948e-002
  6.3560039e-003
  6.3785030e-003
  1.6735505e-002
  8.5887655e-003
 -8.1343698e-003
 -2.1774643e-003
 -5.2816474e-003
 -8.0481825e-002
 -1.6030959e-001
 -2.8930529e-002
  4.1449405e-001
  9.2936200e-001
  1.1124884e+000
  8.2140943e-001
  3.2066030e-001
 -1.8819793e-002
 -7.5261462e-002
  6.7013786e-003
  5.7882581e-002
  4.7034941e-002
  3.0900058e-002
  3.9190434e-002
  4.9810388e-002
  4.2773371e-002
  3.3504413e-002
  4.4359252e-002
  6.6148098e-002
  7.0434067e-002
  5.3945512e-002
  4.4630916e-002
  5.8662265e-002
  7.7960988e-002
  8.3059121e-002
  8.2810271e-002
  9.3213145e-002
  1.1022831e-001
  1.2616601e-001
  1.5255762e-001
  2.0090634e-001
  2.5555698e-001
  2.8977699e-001
  2.9783033e-001
  2.9310217e-001
  2.8866938e-001
  2.9564208e-001
  3.2155274e-001
  3.5198341e-001
  3.5437863e-001
  3.1986600e-001
  2.7955277e-001
  2.5927418e-001
  2.4360278e-001
  2.0870692e-001
  1.6355381e-001
  1.2865920e-001
  9.9229798e-002
  6.3057495e-002
  3.3103524e-002
  2.7043662e-002
  3.2974748e-002
  2.9853088e-002
  2.3868169e-002
  2.9374818e-002
  3.2798172e-002
  1.5526109e-002
 -2.7639138e-003
  1.2589602e-002
  5.2686455e-002
  7.2602864e-002
  5.5824343e-002
  3.2417667e-002
  3.0557509e-002
  4.4142656e-002
  5.4652251e-002
  5.6615647e-002
  5.3076599e-002
  4.6277856e-002
  3.9039719e-002
  3.2776463e-002
  2.4867875e-002
  1.7439501e-002
  2.0056840e-002
  3.2104127e-002
  3.5594638e-002
  2.0448081e-002
  2.8166853e-003
  1.8325697e-003
  1.2902651e-002
  2.0913107e-002
  2.3413607e-002
  2.3025456e-002
  1.4871620e-002
  7.7130923e-004
 -2.6767399e-003
  9.4933367e-003
  1.6310996e-002
  4.8525991e-003
 -3.6731690e-003
  1.2392549e-002
  3.6755524e-002
  3.9999279e-002
  2.4814324e-002
  1.5833416e-002
  1.9398756e-002
  2.4052332e-002
  2.8474447e-002
  3.8417208e-002
  4.5038829e-002
  3.4693472e-002
  1.4304485e-002
  3.5953166e-003
  7.9145582e-003
  1.6805535e-002
  2.0882650e-002
  1.6374195e-002
  6.7350493e-003
  1.0739981e-002
  4.6916192e-002
  9.6868546e-002
  1.1365719e-001
  8.5981185e-002
  6.0328390e-002
  7.2742447e-002
  9.5041800e-002
  8.5589299e-002
  5.8720385e-002
  5.5713507e-002
  7.2635456e-002
  7.0821910e-002
  4.4245715e-002
  2.3084478e-002
  1.7285316e-002
  8.3742635e-003
 -3.5119506e-003
  4.6683295e-003
  3.0128628e-002
  3.9398045e-002
  2.3709412e-002
  1.1322206e-002
  5.0788470e-003
 -3.8148977e-002
 -1.1539170e-001
 -9.9344700e-002
  1.6267471e-001
  6.3465704e-001
  1.0288583e+000
  1.0369574e+000
  6.4452006e-001
  1.6530376e-001
 -7.2518639e-002
 -3.4000272e-002
  6.9413025e-002
  7.6313115e-002
  2.4926591e-002
  1.7014757e-002
  5.5624348e-002
  7.9054505e-002
  7.4162819e-002
  7.3049456e-002
  7.8814618e-002
  7.0160142e-002
  5.7849931e-002
  7.0561228e-002
  9.6653752e-002
  9.8638706e-002
  7.8940959e-002
  7.7286043e-002
  1.0478317e-001
  1.3169276e-001
  1.4463977e-001
  1.6853947e-001
  2.1953254e-001
  2.7447631e-001
  3.0399944e-001
  3.0961949e-001
  3.1308619e-001
  3.2595326e-001
  3.4101697e-001
  3.4503126e-001
  3.3480923e-001
  3.2297066e-001
  3.2291352e-001
  3.2706043e-001
  3.1375723e-001
  2.7918306e-001
  2.4242632e-001
  2.1246240e-001
  1.7566857e-001
  1.2757061e-001
  8.8078684e-002
  6.8168508e-002
  5.1106501e-002
  2.7652661e-002
  1.8508829e-002
  3.5220836e-002
  5.0361718e-002
  4.0188958e-002
  2.8900123e-002
  5.1169520e-002
  9.2499397e-002
  1.0905657e-001
  9.2400114e-002
  7.3072857e-002
  6.8069715e-002
  6.4252274e-002
  5.2329578e-002
  4.2539492e-002
  4.3387447e-002
  5.0770328e-002
  6.0045245e-002
  6.9321289e-002
  7.1939234e-002
  6.2089569e-002
  4.5337543e-002
  3.1730207e-002
  2.5466445e-002
  2.9531852e-002
  4.5817103e-002
  6.1077386e-002
  5.3135651e-002
  2.4682651e-002
  8.4095812e-003
  2.1885991e-002
  4.1338987e-002
  3.9941462e-002
  2.6954672e-002
  2.4989704e-002
  3.2545231e-002
  3.6446794e-002
  4.0158654e-002
  5.0832640e-002
  5.6137458e-002
  4.2430407e-002
  2.1702783e-002
  1.6225939e-002
  3.0896193e-002
  5.9851809e-002
  9.9139718e-002
  1.3167706e-001
  1.2645960e-001
  8.1317876e-002
  4.1852974e-002
  4.6404598e-002
  7.5214252e-002
  8.6975409e-002
  8.0947471e-002
  8.2696380e-002
  8.8891804e-002
  7.2939220e-002
  3.5746730e-002
  7.0778714e-003
 -2.4748112e-004
  1.0695087e-003
  6.8124377e-003
  2.5073112e-002
  4.6062843e-002
  4.7038436e-002
  3.1805457e-002
  2.5297555e-002
  1.8286651e-002
 -3.3925261e-002
 -1.1783439e-001
 -9.9479036e-002
  1.6781115e-001
  6.3691771e-001
  1.0144716e+000
  9.9625824e-001
  5.8123193e-001
  9.8722369e-002
 -1.2005731e-001
 -5.6285038e-002
  5.9955363e-002
  6.8631162e-002
  2.4324291e-002
  3.1433561e-002
  7.3404658e-002
  7.6372723e-002
  4.7815261e-002
  5.1174798e-002
  8.8071455e-002
  1.0111685e-001
  7.7426918e-002
  6.5754083e-002
  8.9185709e-002
  1.1174797e-001
  1.0552247e-001
  9.3692183e-002
  1.0572633e-001
  1.3326858e-001
  1.5557673e-001
  1.7919099e-001
  2.2587729e-001
  2.9371902e-001
  3.4976030e-001
  3.6283767e-001
  3.3899739e-001
  3.1931487e-001
  3.3528759e-001
  3.7083361e-001
  3.8491954e-001
  3.6820610e-001
  3.4950411e-001
  3.4290046e-001
  3.2457230e-001
  2.7743240e-001
  2.2318048e-001
  1.8588094e-001
  1.5519158e-001
  1.1453190e-001
  7.8084874e-002
  6.7333900e-002
  7.2698956e-002
  7.0354924e-002
  5.8780897e-002
  4.8944767e-002
  3.7062031e-002
  1.8290195e-002
  1.0142448e-002
  2.8999215e-002
  5.6200087e-002
  5.9659521e-002
  4.0018763e-002
  2.6404634e-002
  3.4120175e-002
  5.3001933e-002
  7.0735958e-002
  8.2769026e-002
  8.4148542e-002
  7.3102775e-002
  5.9642083e-002
  5.5298090e-002
  5.9395606e-002
  6.4743607e-002
  6.5904093e-002
  5.5302204e-002
  2.9257456e-002
  5.6392331e-003
  1.1669064e-002
  4.2953721e-002
  6.1648563e-002
  4.9565096e-002
  3.3112042e-002
  3.7255790e-002
  4.7479572e-002
  4.2467713e-002
  3.2859245e-002
  3.6214997e-002
  4.0335227e-002
  2.5729274e-002
  3.9451240e-003
  1.1431288e-003
  2.0735352e-002
  5.0475188e-002
  8.6773138e-002
  1.2253819e-001
  1.3194208e-001
  1.0135963e-001
  6.0066618e-002
  4.8422166e-002
  6.8639791e-002
  9.4118405e-002
  1.0946063e-001
  1.1105955e-001
  8.8181211e-002
  4.0824349e-002
  2.1191605e-003
  4.3489483e-003
  3.1457640e-002
  4.1589179e-002
  2.8355698e-002
  2.0546813e-002
  2.6350460e-002
  2.2899108e-002
  6.0087245e-003
  1.7640047e-003
  7.0206475e-003
 -3.2851016e-002
 -1.3112805e-001
 -1.6279382e-001
  5.6543097e-002
  5.3724768e-001
  9.9893976e-001
  1.0809339e+000
  7.0783843e-001
  1.8909349e-001
 -9.7085879e-002
 -7.3011948e-002
  4.5946165e-002
  6.9812838e-002
  2.2454133e-002
  1.1123777e-002
  4.5620566e-002
  6.4299462e-002
  5.4759184e-002
  5.3273141e-002
  6.2773099e-002
  5.3675128e-002
  2.9796293e-002
  2.6341534e-002
  4.9077693e-002
  6.9714850e-002
  7.6793033e-002
  8.3810453e-002
  9.1590392e-002
  8.8471603e-002
  8.7885306e-002
  1.2311901e-001
  1.9724852e-001
  2.7028780e-001
  3.0391535e-001
  2.9685483e-001
  2.7429181e-001
  2.6278369e-001
  2.7593242e-001
  3.0663729e-001
  3.3202652e-001
  3.3630333e-001
  3.2412358e-001
  3.0502953e-001
  2.7810291e-001
  2.4202499e-001
  2.0418340e-001
  1.6765659e-001
  1.2600851e-001
  8.2603577e-002
  5.5055109e-002
  4.7393427e-002
  4.0110390e-002
  2.2805136e-002
  1.2294005e-002
  2.0323567e-002
  2.9001199e-002
  2.0654182e-002
  8.1526257e-003
  1.0388982e-002
  1.8782351e-002
  1.4910361e-002
  3.9407279e-003
  4.2586831e-003
  1.7104044e-002
  2.9178234e-002
  3.4003472e-002
  3.2752600e-002
  2.7187773e-002
  2.5666018e-002
  3.8455105e-002
  5.4834070e-002
  4.8007684e-002
  1.7236799e-002
 -2.1094632e-003
  1.0835925e-002
  3.0584666e-002
  2.7170220e-002
  1.1074083e-002
  7.9453166e-003
  1.4523331e-002
  1.2438420e-002
  5.1857226e-003
  7.8121626e-003
  1.4880748e-002
  1.0396186e-002
 -1.1125567e-003
 -2.1870162e-003
  7.0533149e-003
  1.0830500e-002
  3.4667227e-003
 -6.7470872e-003
 -1.2583971e-002
 -1.1642102e-002
 -4.2207029e-003
  1.4943331e-003
 -4.6997508e-003
 -1.5601377e-002
 -1.1848749e-002
  5.1038283e-003
  9.8716843e-003
 -5.7760136e-003
 -1.7394349e-002
 -9.2095342e-003
 -2.9486863e-004
 -8.0667130e-003
 -1.5227599e-002
  7.3938155e-004
  3.0429951e-002
  5.1479954e-002
  6.2029559e-002
  6.9856854e-002
  7.0558010e-002
  6.2255871e-002
  6.0094355e-002
  7.0450476e-002
  7.3142131e-002
  5.5522184e-002
  4.0305112e-002
  4.9523980e-002
  6.3334043e-002
  4.8421439e-002
  9.8234865e-003
 -1.8999687e-002
 -2.3643909e-002
 -1.4937877e-002
 -1.6731963e-003
  1.0560095e-002
  6.1448962e-003
 -2.0444146e-002
 -4.1805952e-002
 -3.3731737e-002
 -2.8328040e-002
 -7.9674270e-002
 -1.5454212e-001
 -1.0110992e-001
  2.1055606e-001
  6.9819736e-001
  1.0596701e+000
  1.0186471e+000
  6.0021993e-001
  1.2540704e-001
 -1.0045293e-001
 -6.3449968e-002
  2.7011849e-002
  2.6310026e-002
 -1.7620098e-002
 -1.0398233e-002
  3.5109222e-002
  4.8082531e-002
  2.1844906e-002
  6.3928040e-003
  1.8087331e-002
  2.9462150e-002
  3.1298744e-002
  4.2186924e-002
  6.0750358e-002
  6.0322683e-002
  3.5945149e-002
  1.8080859e-002
  3.2255058e-002
  7.1585650e-002
  1.1394086e-001
  1.4697197e-001
  1.7341962e-001
  2.0326894e-001
  2.3960345e-001
  2.6909276e-001
  2.7746433e-001
  2.7542135e-001
  2.8819404e-001
  3.1488314e-001
  3.2545102e-001
  3.0747582e-001
  2.8502100e-001
  2.7644523e-001
  2.6586219e-001
  2.3638107e-001
  1.9979665e-001
  1.6941152e-001
  1.3442921e-001
  8.9050935e-002
  5.7166742e-002
  5.5590680e-002
  5.8787710e-002
  3.6304594e-002
  4.6357559e-003
  3.3198732e-003
  3.2472299e-002
  5.1688239e-002
  3.6621676e-002
  5.3109326e-003
 -1.2170971e-002
 -6.8814033e-003
  7.7810310e-003
  1.3115783e-002
  3.3001248e-003
 -7.3337908e-003
 -1.4599782e-003
  1.5698708e-002
  2.3626339e-002
  2.0395241e-002
  2.5209492e-002
  4.1655399e-002
  4.7082059e-002
  3.0245959e-002
  1.0664171e-002
  5.0402860e-003
  2.5928401e-003
 -8.3821545e-003
 -1.7038516e-002
 -1.3239792e-002
 -8.2051148e-003
 -1.0374776e-002
 -5.5739950e-003
  1.6065207e-002
  3.6474367e-002
  3.5320825e-002
  1.8634004e-002
  2.0861308e-003
 -1.2248498e-002
 -2.3148036e-002
 -1.8759572e-002
  2.9563539e-004
  9.6440946e-003
 -4.7498994e-003
 -2.3535755e-002
 -2.5946357e-002
 -2.0276105e-002
 -1.9884960e-002
 -1.5407546e-002
  1.4037947e-003
  1.0602808e-002
 -7.1615902e-003
 -3.3537273e-002
 -3.6455246e-002
 -1.7429265e-002
 -3.9701266e-003
 -4.5936604e-003
 -9.8026427e-004
  1.9353094e-002
  4.7582067e-002
  7.0165428e-002
  8.2401348e-002
  8.4819750e-002
  7.8392837e-002
  6.4937172e-002
  4.8483750e-002
  3.7131982e-002
  3.8461038e-002
  4.5141181e-002
  3.5574202e-002
  4.4462283e-003
 -2.1749068e-002
 -2.3286345e-002
 -2.2509515e-002
 -4.5161650e-002
 -6.6878922e-002
 -4.9101005e-002
 -1.2343272e-002
 -8.5631317e-003
 -3.0609748e-002
 -3.2548269e-002
 -4.0081071e-002
 -1.2451995e-001
 -2.2216745e-001
 -1.0909027e-001
  3.2191909e-001
  8.2889512e-001
  1.0115144e+000
  7.3823371e-001
  2.7460757e-001
 -3.0619360e-002
 -8.2971704e-002
 -2.6449273e-002
  3.2066716e-003
  4.2711756e-003
  2.1968056e-002
  4.6324617e-002
  3.8881136e-002
  7.1544525e-003
 -4.0646877e-003
  1.6573292e-002
  3.3053918e-002
  2.5906970e-002
  2.5670333e-002
  5.7269227e-002
  8.8886949e-002
  7.8453617e-002
  4.5764757e-002
  4.6119511e-002
  8.4565904e-002
  1.1444003e-001
  1.2134470e-001
  1.4622740e-001
  2.0855256e-001
  2.6536361e-001
  2.7701982e-001
  2.6520958e-001
  2.6978824e-001
  2.8788052e-001
  2.9472229e-001
  2.9281266e-001
  2.9953409e-001
  3.0828363e-001
  2.9921817e-001
  2.7315772e-001
  2.4427998e-001
  2.1350275e-001
  1.7565059e-001
  1.3876850e-001
  1.1221307e-001
  8.8923476e-002
  5.9976715e-002
  3.2289937e-002
  1.4151092e-002
  6.0791251e-005
 -1.3185014e-002
 -1.4555864e-002
 -6.9523710e-004
  1.0022110e-002
  3.8232961e-003
 -6.9585084e-003
 -5.9941250e-003
  2.8439190e-003
  9.8433514e-003
  1.6864457e-002
  2.3534484e-002
  1.8642224e-002
  3.7712467e-003
  3.2917919e-003
  3.0206824e-002
  6.1600586e-002
  6.7913074e-002
  4.8788850e-002
  2.3078389e-002
  3.0065761e-003
 -5.0108380e-003
  5.2012526e-003
  2.6236515e-002
  3.7081197e-002
  3.1763351e-002
  2.8107765e-002
  3.5296344e-002
  3.7762036e-002
  2.6949768e-002
  2.1766447e-002
  3.6697671e-002
  5.4227874e-002
  5.1774903e-002
  3.5297090e-002
  2.4719509e-002
  2.4793268e-002
  2.9712348e-002
  3.8055191e-002
  4.5602351e-002
  4.2536403e-002
  3.3675443e-002
  4.0118371e-002
  6.4481724e-002
  7.7705370e-002
  5.9072452e-002
  2.7201309e-002
  1.2307604e-002
  1.8682904e-002
  3.3142497e-002
  4.9388588e-002
  6.3704689e-002
  6.5776806e-002
  5.3708903e-002
  4.1942911e-002
  3.8878203e-002
  3.4292636e-002
  2.2075522e-002
  1.4653124e-002
  2.0815274e-002
  3.0423428e-002
  3.4704773e-002
  3.9537452e-002
  4.5586398e-002
  3.9720763e-002
  2.0972245e-002
  1.0697028e-002
  2.1324842e-002
  3.7909641e-002
  4.4345070e-002
  4.4134717e-002
  4.3853666e-002
  4.3293055e-002
  5.2636183e-002
  8.6686661e-002
  1.2842033e-001
  1.3531881e-001
  1.0145236e-001
  7.5298332e-002
  9.0929245e-002
  1.1950559e-001
  1.2005990e-001
  1.0125755e-001
  9.3259157e-002
  8.9849609e-002
  6.5654591e-002
  3.0564259e-002
  1.8800187e-002
  3.3126112e-002
  4.3786413e-002
  3.9416993e-002
  3.7454271e-002
  4.2084856e-002
  3.3798623e-002
  1.2481308e-002
  9.3367934e-003
  2.7298364e-002
  6.1598822e-003
 -9.1704326e-002
 -1.5973417e-001
  8.3396538e-003
  4.7451635e-001
  9.8298088e-001
  1.1382995e+000
  8.0851659e-001
  2.8301187e-001
 -3.6063313e-002
 -4.1425586e-002
  6.1671927e-002
  8.2333320e-002
  4.2708026e-002
  4.2199662e-002
  7.6396606e-002
  7.9069175e-002
  5.2112407e-002
  4.9588471e-002
  7.4430586e-002
  8.0457787e-002
  5.9143493e-002
  4.9568175e-002
  6.6931780e-002
  8.3752761e-002
  8.5460302e-002
  9.2004419e-002
  1.1410022e-001
  1.3112080e-001
  1.2965581e-001
  1.3395775e-001
  1.7690018e-001
  2.5356877e-001
  3.1972763e-001
  3.3686336e-001
  3.1344208e-001
  2.9506915e-001
  3.1042691e-001
  3.3853956e-001
  3.4352625e-001
  3.2750539e-001
  3.2062919e-001
  3.2653982e-001
  3.1580366e-001
  2.7715847e-001
  2.3652082e-001
  2.1315139e-001
  1.9253202e-001
  1.5873555e-001
  1.2127191e-001
  9.2297082e-002
  6.7252571e-002
  4.5425847e-002
  3.9837884e-002
  4.8806037e-002
  4.7938771e-002
  2.9717500e-002
  2.0745866e-002
  3.8365743e-002
  6.0214901e-002
  6.1025731e-002
  5.1054611e-002
  5.1189894e-002
  5.5844948e-002
  5.0273042e-002
  4.3677811e-002
  5.3817967e-002
  7.2867624e-002
  7.6720476e-002
  5.9773357e-002
  3.8903922e-002
  2.9676267e-002
  3.4558424e-002
  4.7162689e-002
  5.6336455e-002
  5.3820114e-002
  4.4245665e-002
  3.8521984e-002
  3.7467408e-002
  3.6410375e-002
  4.0989678e-002
  5.5243590e-002
  5.9714713e-002
  3.3496130e-002
 -3.7031541e-003
 -9.4657794e-003
  1.8276582e-002
  3.7795110e-002
  3.0539775e-002
  2.4699171e-002
  3.6497842e-002
  3.8258117e-002
  1.3037961e-002
 -5.1317314e-003
  1.5450202e-002
  4.6846380e-002
  4.1943372e-002
  8.2769925e-003
 -3.0125140e-003
  2.9942176e-002
  7.6682298e-002
  1.0039712e-001
  9.5782122e-002
  7.9816584e-002
  6.8049016e-002
  6.5807057e-002
  7.1318617e-002
  8.1880740e-002
  9.5030900e-002
  1.0094664e-001
  8.3749334e-002
  4.4698419e-002
  1.3219289e-002
  1.2593502e-002
  2.5780960e-002
  2.4015163e-002
  1.5556931e-002
  2.5788530e-002
  4.1242568e-002
  2.8130917e-002
  2.0835546e-003
  9.5992037e-003
  2.8480085e-002
 -2.6520721e-002
 -1.4715802e-001
 -1.5675357e-001
  1.1116864e-001
  5.7398470e-001
  9.2203266e-001
  9.0576746e-001
  5.6609414e-001
  1.6968286e-001
 -4.8448183e-002
 -5.9936765e-002
  5.7453996e-003
  3.3806557e-002
  2.1291849e-002
  2.0986936e-002
  4.3039314e-002
  5.1770038e-002
  3.6492860e-002
  3.0838768e-002
  5.5591666e-002
  8.6580125e-002
  9.5120898e-002
  8.5518515e-002
  7.5711586e-002
  7.0813738e-002
  7.1782222e-002
  8.2906333e-002
  9.7169978e-002
  1.0181882e-001
  1.0934747e-001
  1.5067307e-001
  2.2357191e-001
  2.8211463e-001
  2.9598340e-001
  2.8796205e-001
  2.9220944e-001
  3.0779930e-001
  3.1809602e-001
  3.2565435e-001
  3.3806706e-001
  3.4235789e-001
  3.2326570e-001
  2.9097112e-001
  2.6554404e-001
  2.4691263e-001
  2.2113109e-001
  1.8447855e-001
  1.4382272e-001
  1.0413064e-001
  6.9623696e-002
  4.6849613e-002
  3.6795863e-002
  3.4139040e-002
  3.7399058e-002
  4.5552607e-002
  4.6614953e-002
  3.1618999e-002
  1.7643344e-002
  2.8289355e-002
  5.1435957e-002
  5.0630194e-002
  2.2638262e-002
  5.6783053e-003
  2.0766000e-002
  4.3976503e-002
  5.1690084e-002
  5.4349708e-002
  6.4370968e-002
  6.7136804e-002
  5.0494501e-002
  3.2715766e-002
  3.3651583e-002
  4.2883485e-002
  4.2043906e-002
  3.6316162e-002
  3.8613006e-002
  4.2006172e-002
  3.2909991e-002
  1.6801065e-002
  9.3581066e-003
  1.3550620e-002
  2.0871850e-002
  2.4018019e-002
  1.8438954e-002
  5.1511750e-003
 -1.9119009e-003
  1.0718886e-002
  3.1449119e-002
  3.4846783e-002
  2.0905504e-002
  1.5674688e-002
  2.7276054e-002
  3.3109274e-002
  2.1119760e-002
  1.0581128e-002
  1.6223920e-002
  2.3170058e-002
  1.6803757e-002
  9.0823409e-003
  1.3665616e-002
  1.9999024e-002
  1.5188053e-002
  1.1307270e-002
  2.8043925e-002
  6.2261837e-002
  9.3040233e-002
  1.0607593e-001
  1.0094814e-001
  8.5668149e-002
  7.2908099e-002
  7.1242904e-002
  7.6444659e-002
  8.1082815e-002
  8.6975634e-002
  9.2375665e-002
  7.9234774e-002
  3.9449113e-002
  1.4956294e-003
 -2.7007856e-003
  1.3601405e-002
  1.5079577e-002
  3.0286130e-003
  2.7819595e-003
  5.5877056e-003
 -1.4847756e-002
 -3.5863241e-002
 -1.5596043e-002
  6.4012812e-003
 -5.6594355e-002
 -1.5799109e-001
 -8.1268027e-002
  3.0570974e-001
  8.1003591e-001
  1.0495579e+000
  8.4335027e-001
  3.8809386e-001
  2.8466422e-002
 -7.5212280e-002
 -1.7807242e-002
  3.9166177e-002
  4.1794601e-002
  3.3394085e-002
  4.5581047e-002
  5.6268948e-002
  4.2626507e-002
  2.3423550e-002
  2.6422118e-002
  4.4282778e-002
  5.3090511e-002
  5.4844856e-002
  6.7107593e-002
  8.3432561e-002
  8.2378974e-002
  6.9806174e-002
  7.2802163e-002
  9.2975277e-002
  1.0648663e-001
  1.1328214e-001
  1.4339445e-001
  2.0428750e-001
  2.6230707e-001
  2.9096796e-001
  3.0141893e-001
  3.1009915e-001
  3.1223524e-001
  3.0568716e-001
  3.0739002e-001
  3.2428969e-001
  3.3511471e-001
  3.2052892e-001
  2.8786752e-001
  2.5141579e-001
  2.1371688e-001
  1.8009009e-001
  1.6377611e-001
  1.6029916e-001
  1.4264643e-001
  9.8607558e-002
  4.9878687e-002
  2.0647013e-002
  1.1124525e-002
  1.3570397e-002
  2.6977857e-002
  4.1777008e-002
  3.7789656e-002
  1.4611038e-002
 -3.7676912e-005
  1.1908675e-002
  3.4796340e-002
  4.5915143e-002
  4.2972674e-002
  3.3072241e-002
  1.9224414e-002
  1.0594099e-002
  2.1517703e-002
  4.6445164e-002
  5.8793988e-002
  4.7540184e-002
  3.2615265e-002
  3.3176067e-002
  4.3932093e-002
  5.2737734e-002
  5.6897296e-002
  5.2296312e-002
  3.2303821e-002
  7.7810940e-003
  1.9995145e-003
  1.5557153e-002
  2.2954703e-002
  1.3112964e-002
  4.0628023e-003
  6.9061391e-003
  6.8384873e-003
 -5.0708603e-003
 -1.1693524e-002
  5.1955835e-004
  1.8011560e-002
  2.3397567e-002
  1.9158392e-002
  1.3566346e-002
  5.9876093e-003
 -7.7200809e-004
  2.9572429e-003
  1.3029082e-002
  1.1653971e-002
 -1.4188122e-003
 -4.4690197e-003
  8.8715757e-003
  1.7146011e-002
  8.9463045e-003
  2.5948204e-003
  1.1064399e-002
  1.7242605e-002
  5.6204471e-003
 -7.8230410e-003
 -2.1405637e-003
  1.2646220e-002
  1.1841804e-002
 -3.8946150e-003
 -6.9028585e-003
  2.3073930e-002
  7.4734291e-002
  1.1312692e-001
  1.1064716e-001
  7.7073654e-002
  5.3298977e-002
  6.3530767e-002
  8.5436772e-002
  8.6599259e-002
  7.3422571e-002
  7.2465666e-002
  7.8205382e-002
  6.1730236e-002
  2.5035941e-002
  1.0608403e-003
 -3.0692789e-004
 -3.9562330e-004
 -4.2363922e-003
  5.5612316e-003
  2.2378345e-002
  1.7347017e-002
 -3.1794648e-003
 -4.0353547e-003
 -1.8890241e-003
 -6.0364150e-002
 -1.5416401e-001
 -1.1236058e-001
  2.0410184e-001
  6.8220136e-001
  1.0020759e+000
  9.3549814e-001
  5.6179795e-001
  1.6815222e-001
 -2.9175081e-002
 -3.6866262e-002
  8.9617371e-003
  2.2230306e-002
  2.0477814e-002
  3.7470295e-002
  5.4877885e-002
  4.5100870e-002
  2.9485280e-002
  4.3223529e-002
  6.9718691e-002
  6.4852773e-002
  3.2794623e-002
  2.0264654e-002
  3.8615344e-002
  5.0670073e-002
  4.2040901e-002
  4.6153524e-002
  8.0055193e-002
  1.1134280e-001
  1.1761495e-001
  1.2972200e-001
  1.7867840e-001
  2.3800981e-001
  2.6049017e-001
  2.4676848e-001
  2.3818536e-001
  2.5682587e-001
  2.8706622e-001
  3.0862295e-001
  3.1907047e-001
  3.2374304e-001
  3.2203391e-001
  3.0762431e-001
  2.7722083e-001
  2.3914487e-001
  2.0847343e-001
  1.8605538e-001
  1.5267718e-001
  9.9522190e-002
  5.0965144e-002
  3.3003766e-002
  3.2687676e-002
  2.1099474e-002
  4.5179300e-003
  1.1701355e-002
  3.6635628e-002
  4.1519672e-002
  1.9468838e-002
  5.5525253e-003
  1.5508005e-002
  2.2090657e-002
  9.4471294e-003
  3.2998207e-003
  2.1390268e-002
  3.6317435e-002
  2.0291421e-002
 -5.9800528e-003
 -4.2428109e-003
  2.4003903e-002
  4.3743102e-002
  3.5861076e-002
  1.3713585e-002
 -1.0776577e-003
  1.3809410e-004
  1.0474090e-002
  1.4984531e-002
  6.1702798e-003
 -5.7531147e-003
 -7.7720633e-003
 -4.5832418e-003
 -7.0102638e-003
 -7.7378012e-003
  5.4464105e-003
  1.8665294e-002
  7.6641358e-003
 -1.7150782e-002
 -1.9293942e-002
  5.6996429e-003
  2.0183894e-002
  3.1729326e-003
 -1.9154036e-002
 -1.8152496e-002
 -2.9835451e-003
  4.3078332e-003
  3.9720842e-003
  6.1366703e-003
  6.3455562e-003
 -4.7165874e-003
 -2.2584996e-002
 -3.5754213e-002
 -3.8189150e-002
 -2.7220308e-002
 -4.7895758e-003
  1.4567708e-002
  1.4951305e-002
  1.0093286e-003
 -9.8775367e-003
 -1.5228402e-002
 -2.4122078e-002
 -3.0728540e-002
 -2.1160970e-002
 -4.7390509e-003
 -4.8364032e-003
 -1.8036821e-002
 -1.8513281e-002
 -5.7867442e-003
 -8.5834087e-003
 -3.3430799e-002
 -4.9401104e-002
 -3.6494402e-002
 -1.1506773e-002
  8.1765199e-003
  2.8885526e-002
  5.2201141e-002
  5.9457948e-002
  4.5492938e-002
  3.4433256e-002
  4.0404223e-002
  4.4392734e-002
  3.2529487e-002
  2.4909198e-002
  3.8650481e-002
  5.0907664e-002
  3.1080850e-002
 -1.0712205e-002
 -3.9361673e-002
 -4.4601582e-002
 -4.4746441e-002
 -5.0311267e-002
 -5.4353273e-002
 -5.6342722e-002
 -6.5987084e-002
 -7.7315066e-002
 -6.8064938e-002
 -4.5740667e-002
 -6.8521882e-002
 -1.6754342e-001
 -2.3796562e-001
 -7.9075362e-002
  3.7232913e-001
  8.6711735e-001
  1.0147339e+000
  6.8469749e-001
  1.6501084e-001
 -1.4670841e-001
 -1.4581696e-001
 -3.2860828e-002
  5.1106961e-003
 -1.9344251e-002
 -2.1154206e-002
 -1.0158275e-003
 -4.4550194e-003
 -2.0750755e-002
 -1.1607867e-002
  9.4973079e-003
  1.7266926e-003
 -2.8237011e-002
 -3.8053427e-002
 -1.8788198e-002
  8.5506345e-004
  8.9331551e-003
  2.2177769e-002
  4.5913503e-002
  6.1607559e-002
  6.1090983e-002
  6.5872902e-002
  1.0096688e-001
  1.6161189e-001
  2.1428692e-001
  2.3050570e-001
  2.1869122e-001
  2.1594819e-001
  2.4184932e-001
  2.7216546e-001
  2.7406780e-001
  2.5397741e-001
  2.4441262e-001
  2.5228150e-001
  2.5246606e-001
  2.3049030e-001
  1.9815373e-001
  1.6417386e-001
  1.2207214e-001
  7.3800040e-002
  3.5504275e-002
  1.1964925e-002
 -8.3542720e-003
 -2.7629139e-002
 -3.4805767e-002
 -3.1332997e-002
 -3.2949585e-002
 -4.1764867e-002
 -4.4098167e-002
 -3.8511660e-002
 -3.6853075e-002
 -3.6456302e-002
 -2.4217083e-002
 -1.0038217e-002
 -1.9222899e-002
 -4.5696370e-002
 -5.1372734e-002
 -2.3580085e-002
  3.7400426e-003
  8.1692658e-004
 -1.9886797e-002
 -3.2267501e-002
 -3.1854000e-002
 -2.5432009e-002
 -1.4151857e-002
 -4.7872497e-003
 -1.2412232e-002
 -3.4894687e-002
 -4.7508467e-002
 -3.8069997e-002
 -2.5759389e-002
 -3.0732142e-002
 -4.5222668e-002
 -4.8636352e-002
 -3.4603568e-002
 -1.2510156e-002
  2.7141579e-003
 -3.1909436e-003
 -3.0647914e-002
 -5.6895932e-002
 -5.8662061e-002
 -4.3795190e-002
 -3.8588785e-002
 -4.6190562e-002
 -4.5121124e-002
 -2.8907134e-002
 -1.6315049e-002
 -1.7894563e-002
 -2.2181297e-002
 -2.1454385e-002
 -2.2968094e-002
 -2.8000841e-002
 -2.7099326e-002
 -2.2595006e-002
 -2.8923632e-002
 -4.4308088e-002
 -4.8932955e-002
 -3.7564661e-002
 -2.7236762e-002
 -2.5810664e-002
 -1.9351203e-002
  1.3028236e-003
  2.5304567e-002
  4.0092087e-002
  4.3944136e-002
  3.7386986e-002
  2.3478266e-002
  1.6532062e-002
  2.7743722e-002
  4.4179823e-002
  4.5450230e-002
  3.5229524e-002
  2.9456412e-002
  2.2759481e-002
  2.7794435e-004
 -2.5333730e-002
 -2.7286349e-002
 -1.0202083e-002
 -2.9027069e-003
 -1.0476393e-002
 -1.4835898e-002
 -1.6308702e-002
 -2.8299891e-002
 -4.0188285e-002
 -4.2241137e-002
 -7.3280901e-002
 -1.5679047e-001
 -1.8123648e-001
  3.9856087e-002
  5.1146855e-001
  9.3900058e-001
  9.7959022e-001
  6.0358685e-001
  1.2587087e-001
 -1.2683392e-001
 -1.0844175e-001
 -1.6001985e-003
  3.9363311e-002
  1.9737652e-002
  1.2627876e-002
  3.1656977e-002
  3.7860955e-002
  2.3575848e-002
  2.2687139e-002
  4.2726693e-002
  4.7243575e-002
  2.3438147e-002
  1.4117729e-002
  4.8670182e-002
  8.7867169e-002
  8.4010623e-002
  5.9605648e-002
  6.9569638e-002
  1.1130110e-001
  1.3708922e-001
  1.4248884e-001
  1.7230437e-001
  2.3568950e-001
  2.8257332e-001
  2.8161803e-001
  2.6377196e-001
  2.6511969e-001
  2.7703042e-001
  2.8046324e-001
  2.8520737e-001
  3.0238742e-001
  3.1254839e-001
  2.9426542e-001
  2.5968791e-001
  2.3252429e-001
  2.1001322e-001
  1.7297998e-001
  1.2016851e-001
  7.0839118e-002
  4.1049803e-002
  3.0941473e-002
  2.8729712e-002
  2.0486949e-002
  3.4164104e-003
 -9.9070464e-003
 -9.5120753e-003
 -4.1621648e-003
 -5.6262013e-003
 -7.2084524e-003
  1.8521982e-003
  1.2214217e-002
  1.0107967e-002
  5.4517956e-003
  1.3982617e-002
  2.3038569e-002
  1.1801181e-002
 -4.0254540e-003
  9.2616883e-003
  4.3795590e-002
  5.5424370e-002
  3.2286936e-002
  1.1231195e-002
  1.5313865e-002
  2.1010159e-002
  6.1768657e-003
 -1.0944289e-002
 -6.3753565e-003
  8.2077738e-003
  6.8079958e-003
 -9.3969334e-003
 -1.6628509e-002
 -2.7819854e-003
  1.9243038e-002
  2.5603581e-002
  4.0830760e-003
 -2.8602081e-002
 -3.6404254e-002
 -6.1919886e-003
  2.7679082e-002
  2.3372492e-002
 -1.2613986e-002
 -3.7707437e-002
 -3.3033914e-002
 -1.7048857e-002
 -4.5126504e-003
  9.1304688e-003
  2.0474263e-002
  1.4511533e-002
 -3.4301532e-003
 -7.2195989e-003
  8.3623089e-003
  1.7203400e-002
  3.7265788e-003
 -1.4424797e-002
 -1.6918183e-002
 -7.6402839e-003
 -2.0088188e-004
  1.5673662e-003
  1.6004502e-003
  8.9607563e-003
  3.6425079e-002
  7.9702144e-002
  1.0506938e-001
  8.7931250e-002
  5.6159524e-002
  5.6763515e-002
  8.4047384e-002
  8.7273969e-002
  5.2870068e-002
  2.7054052e-002
  4.0663770e-002
  6.1285011e-002
  4.8345177e-002
  1.4860270e-002
 -6.9299549e-004
  6.3597854e-003
  1.2983566e-002
  1.2944581e-002
  1.7228059e-002
  2.0766112e-002
  6.0672305e-003
 -2.0064031e-002
 -2.9668634e-002
 -2.6615757e-002
 -5.8978626e-002
 -1.3314474e-001
 -1.2827696e-001
  1.2447646e-001
  6.1514863e-001
  1.0501257e+000
  1.0809068e+000
  6.7045949e-001
  1.5597987e-001
 -1.0175772e-001
 -6.4568913e-002
  4.4286655e-002
  6.2160615e-002
  2.6553928e-002
  2.4794435e-002
  4.9523724e-002
  5.0155892e-002
  3.0728614e-002
  2.8131386e-002
  4.4196204e-002
  5.5490945e-002
  5.9481995e-002
  6.7769052e-002
  7.6092852e-002
  7.5226431e-002
  7.3940698e-002
  8.4697509e-002
  1.0249146e-001
  1.1883356e-001
  1.4081742e-001
  1.7758163e-001
  2.2135981e-001
  2.5727202e-001
  2.8095670e-001
  2.9654646e-001
  3.0824994e-001
  3.1994252e-001
  3.3210419e-001
  3.3775076e-001
  3.3328565e-001
  3.2915127e-001
  3.3329843e-001
  3.3102266e-001
  3.0290702e-001
  2.5671877e-001
  2.1733460e-001
  1.9079218e-001
  1.6437457e-001
  1.3636776e-001
  1.1678986e-001
  1.0274453e-001
  8.2497164e-002
  6.0375584e-002
  4.8472585e-002
  3.9746822e-002
  2.1884227e-002
  1.0383334e-002
  2.8706109e-002
  5.9250202e-002
  5.8397816e-002
  2.4720264e-002
  7.9702259e-003
  3.8108658e-002
  8.4602506e-002
  1.0238211e-001
  8.5080698e-002
  5.5672455e-002
  3.3422662e-002
  2.7736040e-002
  4.0906957e-002
  6.0840913e-002
  6.8402482e-002
  6.1444050e-002
  5.5357329e-002
  5.6929353e-002
  5.7716269e-002
  5.4341354e-002
  5.1951752e-002
  4.6029915e-002
  2.5903815e-002
 -7.0386587e-004
 -1.1451858e-002
 -1.1959174e-003
  1.3309593e-002
  2.2225429e-002
  3.1814355e-002
  4.3242560e-002
  4.7173913e-002
  4.2917464e-002
  4.0527321e-002
  4.1931647e-002
  4.0970044e-002
  4.0186427e-002
  4.5042928e-002
  4.5706502e-002
  2.9899157e-002
  9.6411294e-003
  8.0943161e-003
  2.3580534e-002
  3.4221598e-002
  3.3470119e-002
  3.1799344e-002
  2.9090560e-002
  1.8313669e-002
  1.2005390e-002
  2.8869819e-002
  5.5239097e-002
  5.6904419e-002
  3.1168388e-002
  1.0718050e-002
  1.2633231e-002
  2.1204487e-002
  2.7538133e-002
  4.7018986e-002
  8.4035674e-002
  1.1383472e-001
  1.1714615e-001
  1.0619827e-001
  9.9887132e-002
  9.5191105e-002
  7.9582436e-002
  5.6420437e-002
  4.4046795e-002
  5.5754780e-002
  8.3820818e-002
  9.9452126e-002
  7.7134212e-002
  2.7921466e-002
 -6.3514033e-003
 -4.6988356e-003
  8.8471070e-003
  1.0191866e-002
  1.3206908e-002
  3.2391273e-002
  4.1134703e-002
  1.1642470e-002
 -3.3294368e-002
 -6.0594552e-002
 -8.3814668e-002
 -1.0304859e-001
 -1.5308433e-002
  2.9675797e-001
  7.5229291e-001
  1.0518750e+000
  9.5524516e-001
  5.4042536e-001
  1.2145394e-001
 -6.7080400e-002
 -4.5553081e-002
  2.4939955e-002
  4.5876052e-002
  3.7791895e-002
  4.8024300e-002
  7.0539280e-002
  7.0435370e-002
  4.7952566e-002
  3.8383732e-002
  5.4589903e-002
  6.8279754e-002
  5.9892931e-002
  5.1834535e-002
  6.8446292e-002
  9.3129286e-002
  9.7690127e-002
  9.0905470e-002
  1.0122518e-001
  1.2908864e-001
  1.5511022e-001
  1.8118435e-001
  2.2209116e-001
  2.6641837e-001
  2.8873096e-001
  2.9500772e-001
  3.1342512e-001
  3.4280732e-001
  3.5356262e-001
  3.4073476e-001
  3.3262164e-001
  3.4080984e-001
  3.4247326e-001
  3.2139482e-001
  2.8917994e-001
  2.5544266e-001
  2.1207924e-001
  1.5956102e-001
  1.1755266e-001
  9.6231708e-002
  8.3020552e-002
  6.7525690e-002
  5.5224236e-002
  4.9443074e-002
  4.4453229e-002
  4.2199692e-002
  5.1044830e-002
  6.2854677e-002
  5.6823467e-002
  3.2234853e-002
  1.3654360e-002
  1.7663173e-002
  3.5605861e-002
  5.2792666e-002
  6.3524349e-002
  6.4540859e-002
  5.4693508e-002
  4.3425509e-002
  4.1839989e-002
  4.6896488e-002
  5.0467962e-002
  5.5807639e-002
  6.5207987e-002
  6.4022235e-002
  4.3223852e-002
  2.4825577e-002
  3.3088906e-002
  5.1717168e-002
  4.5747888e-002
  1.7696196e-002
  2.4746447e-003
  1.0630115e-002
  1.8107436e-002
  1.3462299e-002
  1.3586933e-002
  2.5615416e-002
  3.2142407e-002
  2.6055104e-002
  2.6096076e-002
  4.4033611e-002
  6.4385793e-002
  6.9200022e-002
  5.9894473e-002
  4.5260037e-002
  2.8890212e-002
  1.5617474e-002
  1.1465746e-002
  1.3254237e-002
  1.4782924e-002
  2.0806493e-002
  3.5728071e-002
  4.5509453e-002
  3.5829765e-002
  2.1301756e-002
  2.7206616e-002
  4.6943277e-002
  5.0226729e-002
  3.2463656e-002
  2.1517339e-002
  3.0869774e-002
  3.9144732e-002
  2.7173540e-002
  9.0480041e-003
  1.2548251e-002
  4.4830712e-002
  8.6495889e-002
  1.1017400e-001
  1.0397646e-001
  8.3804059e-002
  7.6002193e-002
  8.2278214e-002
  7.9272590e-002
  6.2301214e-002
  6.0587200e-002
  8.7361594e-002
  1.0678801e-001
  8.4358627e-002
  4.1774907e-002
  2.1491795e-002
  2.3191805e-002
  2.1604030e-002
  2.1280962e-002
  3.8065610e-002
  4.8624408e-002
  2.4175394e-002
 -2.5443517e-003
  1.6694086e-002
  3.8937597e-002
 -2.8978961e-002
 -1.4999464e-001
 -1.1849100e-001
  2.0882505e-001
  6.8713624e-001
  9.7885640e-001
  8.8227182e-001
  5.1412529e-001
  1.6065318e-001
 -3.1600857e-004
 -4.6858154e-003
  2.1941663e-002
  2.2957518e-002
  2.6028385e-002
  5.1192566e-002
  6.9656917e-002
  5.9860979e-002
  4.9512472e-002
  6.8879570e-002
  9.7663844e-002
  9.7706103e-002
  7.4594840e-002
  6.4942466e-002
  7.8064724e-002
  9.2324148e-002
  9.9560764e-002
  1.1123667e-001
  1.2505208e-001
  1.2652079e-001
  1.2466034e-001
  1.4852408e-001
  2.0337838e-001
  2.6177391e-001
  3.0180084e-001
  3.2571161e-001
  3.3886765e-001
  3.3914541e-001
  3.3154784e-001
  3.2903471e-001
  3.3508892e-001
  3.4264302e-001
  3.4587589e-001
  3.3639278e-001
  3.0110333e-001
  2.4672128e-001
  2.0893301e-001
  2.0691358e-001
  2.0641353e-001
  1.6514653e-001
  9.9134746e-002
  6.0339878e-002
  5.9376629e-002
  5.9165965e-002
  4.1620344e-002
  2.9274015e-002
  3.4708000e-002
  3.7412438e-002
  2.5447613e-002
  1.8366412e-002
  3.0371784e-002
  4.4904740e-002
  4.4704225e-002
  3.8996097e-002
  4.3095499e-002
  5.3934239e-002
  6.1387754e-002
  6.5716791e-002
  7.0941400e-002
  7.4821016e-002
  7.3682415e-002
  6.6072394e-002
  4.9945969e-002
  2.8282460e-002
  1.4625515e-002
  1.8726314e-002
  3.1422538e-002
  3.7806264e-002
  3.6799299e-002
  3.2322199e-002
  1.8720543e-002
 -4.1267986e-003
 -1.6397585e-002
 -4.6282988e-003
  1.1934550e-002
  9.4002413e-003
 -1.0464244e-003
  6.1724845e-003
  2.4283297e-002
  2.5656859e-002
  1.1278045e-002
  8.9084759e-003
  2.4448962e-002
  3.3374672e-002
  2.2619524e-002
  6.6863621e-003
 -1.2664609e-003
 -3.6359384e-003
 -1.3328554e-003
  8.6618330e-003
  1.7849363e-002
  1.6670484e-002
  1.9782476e-002
  5.0749475e-002
  1.0016620e-001
  1.2884003e-001
  1.1678597e-001
  8.3253303e-002
  5.5693669e-002
  4.3783229e-002
  4.6012244e-002
  5.7296442e-002
  6.6047290e-002
  6.2979708e-002
  5.3553432e-002
  4.6419318e-002
  3.6513732e-002
  1.7730230e-002
  1.5364963e-003
  9.3210408e-004
  7.0193705e-003
  4.6889522e-003
 -9.0343535e-004
  2.6495964e-003
  1.0330486e-002
  1.1338374e-002
  4.2786331e-003
 -2.3165962e-002
 -9.0177879e-002
 -1.4949020e-001
 -6.0618990e-002
  2.6990075e-001
  7.1252871e-001
  9.6567988e-001
  8.3577900e-001
  4.3258940e-001
  5.3696011e-002
 -9.6693011e-002
 -4.8170231e-002
  3.7392684e-002
  5.0572347e-002
  1.0559960e-002
 -5.9401287e-003
  2.7064629e-002
  6.4071299e-002
  6.0694300e-002
  3.1403716e-002
  1.9220512e-002
  3.5151834e-002
  5.5526139e-002
  6.3008023e-002
  6.1288052e-002
  5.9002723e-002
  6.4120380e-002
  8.4451696e-002
  1.1226145e-001
  1.2385912e-001
  1.1822118e-001
  1.3468064e-001
  1.9957319e-001
  2.7558795e-001
  3.0516702e-001
  2.9029184e-001
  2.8394557e-001
  3.0881523e-001
  3.3165761e-001
  3.2231789e-001
  2.9573268e-001
  2.8299334e-001
  2.9112596e-001
  3.0225498e-001
  2.9148834e-001
  2.4322361e-001
  1.6995320e-001
  1.1142012e-001
  9.2981098e-002
  9.2074322e-002
  7.0959124e-002
  3.2040642e-002
  9.2605102e-003
  1.3147961e-002
  2.0580046e-002
  1.6433731e-002
  9.6945614e-003
  6.3856675e-003
 -4.8784584e-004
 -9.5252739e-003
 -8.3225019e-003
  3.3199966e-003
  1.2393465e-002
  1.6788832e-002
  2.6574347e-002
  4.0783355e-002
  4.6620152e-002
  4.1830844e-002
  3.6313778e-002
  3.3503745e-002
  3.0362260e-002
  3.0653447e-002
  3.6995541e-002
  3.7351278e-002
  2.2427673e-002
  7.2169997e-003
  1.0005750e-002
  2.0353903e-002
  1.6541204e-002
  5.4727379e-003
  1.3565569e-002
  4.3399913e-002
  7.0244423e-002
  7.8691981e-002
  7.5028720e-002
  6.7640849e-002
  6.2527058e-002
  7.2743059e-002
  1.0397954e-001
  1.3601242e-001
  1.4687399e-001
  1.4990425e-001
  1.7757698e-001
  2.3315312e-001
  2.8724214e-001
  3.1812336e-001
  3.2773966e-001
  3.2350905e-001
  3.1355895e-001
  3.1456090e-001
  3.3365517e-001
  3.4597751e-001
  3.1962856e-001
  2.6024630e-001
  2.0318179e-001
  1.6608436e-001
  1.3784362e-001
  1.0928456e-001
  8.3647413e-002
  5.8709907e-002
  2.8316523e-002
  1.3704801e-003
 -6.8990620e-003
 -2.8063457e-004
  6.1372479e-003
  1.2351088e-002
  2.5093570e-002
  3.1654122e-002
  1.4560677e-002
 -1.1850766e-002
 -1.3148102e-002
  1.6107387e-002
  4.5102324e-002
  5.0797556e-002
  4.2138343e-002
  3.7619530e-002
  4.2640058e-002
  5.1914704e-002
  5.5480218e-002
  4.3649388e-002
  2.2079213e-002
  1.3677620e-002
  2.7147306e-002
  3.7139907e-002
  1.9955950e-002
 -5.6669094e-003
 -4.1012390e-003
  2.1919280e-002
  3.5682818e-002
  2.1376438e-002
  1.8273981e-003
  1.4594907e-003
  1.9225449e-002
  3.8646379e-002
  4.2663771e-002
  2.2268841e-002
 -9.1639065e-003
 -1.8440405e-002
  8.6991544e-003
  4.3015846e-002
  4.9730179e-002
  3.5492580e-002
  2.8322726e-002
  2.7948091e-002
  1.4434345e-002
 -4.9991571e-003
 -1.5212980e-003
  2.3859121e-002
  3.5779276e-002
  1.8523637e-002
 -8.4179649e-004
  4.8616795e-003
  2.5324856e-002
  3.2858593e-002
  2.2198683e-002
  1.6271053e-002
  3.7829812e-002
  8.0196851e-002
  1.0814076e-001
  9.6443718e-002
  6.5601051e-002
  5.8656879e-002
  8.0880024e-002
  9.3875961e-002
  7.8574164e-002
  6.3092128e-002
  6.7005245e-002
  6.3653051e-002
  3.3035357e-002
  7.6036556e-003
  1.7622910e-002
  3.0991982e-002
  5.9624416e-003
 -2.9888648e-002
 -2.1503092e-002
  1.8224839e-002
  3.1062153e-002
  1.3908969e-002
  8.2645018e-003
 -4.7590676e-003
 -8.6324449e-002
 -1.7976643e-001
 -8.3087262e-002
  3.1430495e-001
  8.1648784e-001
  1.0561058e+000
  8.6300168e-001
  4.3065938e-001
  9.1982485e-002
 -1.0249930e-002
  1.4597948e-002
  1.8433695e-002
 -7.4616958e-003
  9.9812616e-003
  7.3255656e-002
  1.0427784e-001
  6.7497039e-002
  1.9625560e-002
  1.7407845e-002
  4.2220885e-002
  5.1457855e-002
  4.9566847e-002
  6.0412468e-002
  7.1349097e-002
  5.9601737e-002
  4.5689120e-002
  6.5234181e-002
  1.0644133e-001
  1.2958693e-001
  1.3639625e-001
  1.6598550e-001
  2.2576874e-001
  2.7768542e-001
  2.9719933e-001
  3.0146710e-001
  3.1104210e-001
  3.2190929e-001
  3.2597981e-001
  3.2849138e-001
  3.3457710e-001
  3.4041667e-001
  3.4182901e-001
  3.3352696e-001
  3.0370793e-001
  2.5032265e-001
  1.9600924e-001
  1.6356359e-001
  1.4414200e-001
  1.1398653e-001
  7.3530624e-002
  4.3402399e-002
  3.0506230e-002
  2.5855472e-002
  2.7594132e-002
  3.7365726e-002
  4.1590661e-002
  2.6145664e-002
  3.7393401e-003
 -1.6078138e-003
  9.1721444e-003
  1.7149148e-002
  2.0186929e-002
  3.0102694e-002
  4.2102069e-002
  3.9980092e-002
  2.8582858e-002
  2.9525274e-002
  4.4623796e-002
  5.2214072e-002
  4.1337167e-002
  2.4598971e-002
  1.6202453e-002
  1.8666527e-002
  2.9580546e-002
  4.1557839e-002
  3.9897668e-002
  2.0142931e-002
  1.6879870e-003
  4.2470029e-003
  1.9022705e-002
  2.3200079e-002
  1.2963433e-002
  1.3010058e-003
 -5.6458015e-003
 -8.6760284e-003
 -4.7547680e-003
  2.3225328e-003
 -4.0337140e-003
 -2.5294837e-002
 -3.2660085e-002
 -7.7336292e-003
  2.1108026e-002
  1.6916205e-002
 -7.8232728e-003
 -9.8459173e-003
  1.9118066e-002
  4.4536595e-002
  4.2288764e-002
  2.2930470e-002
  3.5174696e-003
 -1.1117305e-002
 -1.7030431e-002
 -1.0296402e-002
 -2.8024002e-004
 -4.2696774e-004
 -5.9235821e-003
 -1.0888551e-003
  1.4581392e-002
  2.7503198e-002
  3.0797752e-002
  2.4834803e-002
  6.8654229e-003
 -1.8866795e-002
 -3.1751425e-002
 -1.8167755e-002
  6.0972167e-003
  1.7238613e-002
  1.3726114e-002
  5.5587753e-003
 -6.7181935e-003
 -1.7192192e-002
 -1.9011523e-003
  4.5695951e-002
  8.6729390e-002
  8.2722420e-002
  5.3419018e-002
  4.7932130e-002
  7.1095929e-002
  8.3842447e-002
  7.0393172e-002
  5.6988594e-002
  6.0119469e-002
  6.1042734e-002
  4.4202080e-002
  2.3683744e-002
  1.4560197e-002
  7.4114517e-003
 -9.1472628e-003
 -2.2017709e-002
 -1.1561282e-002
  1.4133521e-002
  2.3730792e-002
  4.5054477e-003
 -1.6446106e-002
 -1.2630993e-002
 -1.5178925e-002
 -8.5116889e-002
 -1.9173738e-001
 -1.6141279e-001
  1.5838098e-001
  6.6489076e-001
  1.0185843e+000
  9.6284438e-001
  5.8140393e-001
  1.8334231e-001
 -1.8227216e-002
 -4.2750447e-002
 -8.6740629e-003
  1.9163344e-002
  3.2893845e-002
  2.8547464e-002
  7.8684326e-003
 -5.8762113e-003
  4.5212128e-003
  2.4458598e-002
  3.1339935e-002
  2.7186240e-002
  3.0429248e-002
  4.7900536e-002
  6.7995451e-002
  7.5160208e-002
  6.5696794e-002
  5.2828752e-002
  5.4232710e-002
  7.2347297e-002
  9.6650963e-002
  1.2715391e-001
  1.7506750e-001
  2.3198771e-001
  2.6593952e-001
  2.6640738e-001
  2.6607208e-001
  2.9298564e-001
  3.2726778e-001
  3.3551971e-001
  3.2369427e-001
  3.1938711e-001
  3.2129556e-001
  3.0636523e-001
  2.7414846e-001
  2.4425457e-001
  2.1770194e-001
  1.7869834e-001
  1.3039452e-001
  9.3520715e-002
  7.1586736e-002
  4.9661864e-002
  2.6016712e-002
  1.4083679e-002
  1.3236453e-002
  6.7820536e-003
 -8.8047682e-003
 -1.7405143e-002
 -8.5921819e-003
  9.6907824e-003
  2.3577755e-002
  2.3662335e-002
  8.6736660e-003
 -7.6161668e-003
 -3.8299952e-003
  2.0225231e-002
  3.6899821e-002
  2.8988710e-002
  1.5034286e-002
  1.6083901e-002
  2.0446543e-002
  9.3604512e-003
 -3.7863902e-003
  5.5766280e-003
  2.8071973e-002
  3.1923394e-002
  1.0947139e-002
 -1.1233323e-002
 -1.8547766e-002
 -1.5405112e-002
 -8.9303352e-003
 -4.7203178e-003
 -1.2908386e-002
 -3.3739514e-002
 -4.5911549e-002
 -3.3296779e-002
 -1.2325966e-002
 -8.3117968e-003
 -1.8045545e-002
 -2.2460095e-002
 -2.1778927e-002
 -2.7631439e-002
 -3.2769419e-002
 -2.1810894e-002
 -4.0837677e-003
 -4.0198012e-003
 -2.3914292e-002
 -4.4223710e-002
 -5.4661009e-002
 -5.8038336e-002
 -5.1233190e-002
 -3.1596053e-002
 -1.6317644e-002
 -2.5614951e-002
 -4.9200864e-002
 -5.6937865e-002
 -4.1980594e-002
 -2.7912223e-002
 -3.1315998e-002
 -3.9020899e-002
 -2.7550718e-002
  7.7799751e-003
  4.6087652e-002
  5.9502763e-002
  4.3470796e-002
  2.6404064e-002
  3.3960578e-002
  4.9463095e-002
  3.9851314e-002
  1.8072010e-002
  3.2148938e-002
  8.0006900e-002
  9.1526431e-002
  2.7973736e-002
 -5.2985299e-002
 -7.7456327e-002
 -5.4644494e-002
 -4.1070516e-002
 -4.6374113e-002
 -4.1403021e-002
 -2.9748715e-002
 -3.6476625e-002
 -4.5178239e-002
 -2.8326020e-002
 -2.9864561e-002
 -1.1501330e-001
 -2.1264549e-001
 -1.1553223e-001
  2.7494337e-001
  7.5479773e-001
  9.6675364e-001
  7.5605222e-001
  3.2034290e-001
 -1.1653259e-002
 -9.8782049e-002
 -5.0391580e-002
 -2.0912666e-002
 -3.0263761e-002
 -1.0683695e-002
  4.6318922e-002
  7.3258603e-002
  3.8994688e-002
 -4.8213065e-003
 -8.9030610e-003
  7.2399578e-003
  7.2432702e-003
  1.8735624e-003
  1.6867050e-002
  3.8419228e-002
  3.9947194e-002
  3.3719025e-002
  4.7776292e-002
  7.4379408e-002
  8.8971118e-002
  1.0208787e-001
  1.4312263e-001
  2.0300982e-001
  2.4075913e-001
  2.4433381e-001
  2.4336248e-001
  2.6042627e-001
  2.8565820e-001
  3.0218481e-001
  3.0613175e-001
  2.9846334e-001
  2.8175233e-001
  2.6584722e-001
  2.5665307e-001
  2.4282952e-001
  2.1166877e-001
  1.7014055e-001
  1.3205147e-001
  9.6252303e-002
  5.7569267e-002
  2.5087481e-002
  6.9676331e-003
 -8.1904322e-003
 -3.0797604e-002
 -4.6533572e-002
 -3.9137633e-002
 -2.1889925e-002
 -1.8662775e-002
 -2.7491139e-002
 -3.1211123e-002
 -3.0293548e-002
 -3.4509740e-002
 -3.4185373e-002
 -1.3166793e-002
  1.6616781e-002
  2.5450298e-002
  7.8431338e-003
 -1.2525680e-002
 -1.7749866e-002
 -1.2725143e-002
 -9.5530712e-003
 -1.4180263e-002
 -2.5495435e-002
 -3.3777883e-002
 -2.7598605e-002
 -1.2838186e-002
 -1.0084096e-002
 -2.2463048e-002
 -2.8194653e-002
 -1.9381940e-002
 -1.9787105e-002
 -4.1352235e-002
 -5.3396389e-002
 -2.7985853e-002
  9.3377458e-003
  1.2635084e-002
 -1.8221437e-002
 -4.3097280e-002
 -4.1489406e-002
 -2.9783407e-002
 -2.5842765e-002
 -3.0350563e-002
 -3.9966341e-002
 -5.0503177e-002
 -5.0298332e-002
 -3.3955896e-002
 -1.6919763e-002
 -1.6428147e-002
 -2.8126593e-002
 -3.9697347e-002
 -5.0497058e-002
 -5.5802253e-002
 -3.3959909e-002
  1.9814694e-002
  6.6141797e-002
  6.4054541e-002
  2.7514641e-002
  3.9423753e-003
  8.5160497e-003
  1.8092176e-002
  2.1103891e-002
  2.9649541e-002
  4.1052552e-002
  3.0354040e-002
 -6.3035628e-003
 -3.4886894e-002
 -2.8644711e-002
 -6.4608908e-003
 -5.4766295e-003
 -2.9569858e-002
 -4.7589046e-002
 -4.0539568e-002
 -2.8050327e-002
 -3.5338672e-002
 -5.3124345e-002
 -6.2796267e-002
 -9.0834063e-002
 -1.7196480e-001
 -2.2680278e-001
 -6.0642462e-002
  4.0370402e-001
  9.1767175e-001
  1.0732478e+000
  7.3317856e-001
  1.9793071e-001
 -1.2496233e-001
 -1.3344024e-001
 -3.1241398e-002
 -5.3724916e-003
 -4.5645155e-002
 -6.4357466e-002
 -4.7391455e-002
 -3.2046466e-002
 -2.4311668e-002
 -6.6961759e-003
  1.2967556e-002
  1.2858456e-002
 -2.3885781e-003
 -8.4966289e-003
  2.2072925e-003
  1.6653339e-002
  2.6605179e-002
  3.8542058e-002
  5.7495992e-002
  7.4265118e-002
  7.7860362e-002
  7.9566200e-002
  1.1106822e-001
  1.8381750e-001
  2.5917084e-001
  2.8536411e-001
  2.6426434e-001
  2.4980954e-001
  2.7301670e-001
  3.0470868e-001
  3.0845200e-001
  2.9187134e-001
  2.7844017e-001
  2.6296483e-001
  2.3012167e-001
  1.9062814e-001
  1.6216325e-001
  1.3466616e-001
  9.0065815e-002
  3.9412704e-002
  6.4075454e-003
 -1.0347927e-002
 -2.5847088e-002
 -3.5821743e-002
 -3.0285689e-002
 -2.5381274e-002
 -4.4058007e-002
 -7.3970711e-002
 -8.0958986e-002
 -5.9957048e-002
 -3.9509084e-002
 -3.7798652e-002
 -4.4219200e-002
 -4.4642092e-002
 -3.9032700e-002
 -3.2188081e-002
 -2.6777991e-002
 -2.6219990e-002
 -3.0116312e-002
 -3.0505536e-002
 -2.3667530e-002
 -1.6904656e-002
 -1.4596761e-002
 -1.2087056e-002
 -1.2578618e-002
 -2.9069099e-002
 -5.6620916e-002
 -6.7758913e-002
 -5.3203807e-002
 -4.0340321e-002
 -4.8841768e-002
 -5.6375266e-002
 -3.7572854e-002
 -1.0765478e-002
 -1.0611230e-002
 -3.3933879e-002
 -4.9739046e-002
 -4.9360838e-002
 -5.0124664e-002
 -5.7734703e-002
 -5.9083840e-002
 -4.9199414e-002
 -3.7800153e-002
 -3.1410811e-002
 -3.0174857e-002
 -3.6718290e-002
 -4.9680848e-002
 -5.7421620e-002
 -5.5407165e-002
 -5.7450863e-002
 -7.1896743e-002
 -8.1859367e-002
 -6.9409944e-002
 -4.4588924e-002
 -2.9734037e-002
 -2.9535534e-002
 -3.6073039e-002
 -4.6628224e-002
 -5.5452429e-002
 -4.5624001e-002
 -1.2688894e-002
  1.9176181e-002
  2.7195836e-002
  2.0834416e-002
  2.1239289e-002
  2.6968067e-002
  2.3557341e-002
  1.1818852e-002
  3.4353266e-003
  1.2625261e-003
  2.8629351e-003
  8.7961522e-003
  1.1728738e-002
 -3.0914673e-003
 -3.0831135e-002
 -4.4602265e-002
 -3.6905400e-002
 -3.4542324e-002
 -5.1547397e-002
 -6.0736789e-002
 -4.0007851e-002
 -1.3682828e-002
 -1.5407257e-002
 -4.3575105e-002
 -8.7393066e-002
 -1.5052966e-001
 -1.9123049e-001
 -8.3996602e-002
  2.5856641e-001
  7.1332720e-001
  9.8262366e-001
  8.6120340e-001
  4.4264789e-001
  2.8111290e-002
 -1.5325866e-001
 -1.1137772e-001
 -1.1217942e-002
  2.4203932e-002
  4.7876283e-003
 -1.7461075e-003
  2.1479263e-002
  3.6670564e-002
  2.5301269e-002
  1.3165070e-002
  1.9495722e-002
  2.7816397e-002
  2.3892196e-002
  2.3197321e-002
  3.7794363e-002
  5.0025080e-002
  4.5379071e-002
  4.1943776e-002
  6.0202264e-002
  9.0941793e-002
  1.2039880e-001
  1.5915361e-001
  2.1468274e-001
  2.6089556e-001
  2.7046829e-001
  2.5849018e-001
  2.6034589e-001
  2.8209060e-001
  3.0407502e-001
  3.1829714e-001
  3.2997662e-001
  3.3389781e-001
  3.1937356e-001
  2.9053796e-001
  2.5779947e-001
  2.1980584e-001
  1.7471736e-001
  1.3470406e-001
  1.0786975e-001
  8.2555090e-002
  5.1442297e-002
  3.1438311e-002
  3.4371131e-002
  3.8362323e-002
  1.8110225e-002
 -1.3384295e-002
 -2.4408759e-002
 -1.2166400e-002
  1.4677244e-004
  3.5181249e-003
  1.0140882e-002
  2.5794725e-002
  4.0681190e-002
  4.5241827e-002
  3.7591713e-002
  2.1190031e-002
  7.9208556e-003
  1.1416454e-002
  2.5728540e-002
  2.8101273e-002
  1.5305267e-002
  1.4318176e-002
  3.9862322e-002
  6.6240581e-002
  6.3502184e-002
  3.8632133e-002
  1.7647519e-002
  9.7405289e-003
  1.3327247e-002
  3.2944197e-002
  6.1555255e-002
  6.9096079e-002
  4.0832540e-002
  8.3291511e-003
  9.5346326e-003
  3.4288753e-002
  4.2619174e-002
  2.3890484e-002
  4.5553734e-003
  5.4263867e-003
  2.1555221e-002
  3.9475206e-002
  4.8684830e-002
  4.0574365e-002
  1.7560029e-002
 -1.3692099e-003
 -5.6894624e-004
  1.4644271e-002
  3.2142494e-002
  4.9422597e-002
  6.2114211e-002
  5.6175453e-002
  3.0853576e-002
  1.0669992e-002
  1.3532140e-002
  2.4280206e-002
  2.0655406e-002
  8.0182114e-003
  7.0762747e-003
  2.3912448e-002
  5.1991300e-002
  8.5621724e-002
  1.1187787e-001
  1.1012708e-001
  8.1903903e-002
  6.0740459e-002
  6.9198894e-002
  8.7211051e-002
  8.7118264e-002
  7.6559539e-002
  7.7098255e-002
  8.1924111e-002
  6.9736790e-002
  4.6020755e-002
  3.5429286e-002
  4.1106666e-002
  4.2958246e-002
  3.1919371e-002
  1.8600183e-002
  1.0742369e-002
  6.5038972e-003
  8.5658774e-003
  2.1085229e-002
  2.8127913e-002
 -3.7322547e-003
 -7.9993152e-002
 -1.2933215e-001
 -2.0787252e-002
  3.1896968e-001
  7.7025807e-001
  1.0437903e+000
  9.2162651e-001
  4.9078509e-001
  7.6977623e-002
 -7.7353824e-002
 -1.5299933e-002
  6.8468665e-002
  7.6755722e-002
  5.7999910e-002
  6.9021714e-002
  9.3507214e-002
  9.6425285e-002
  8.1906628e-002
  7.2157828e-002
  7.1677260e-002
  7.3263210e-002
  7.5279129e-002
  8.0499021e-002
  9.1243688e-002
  1.0775968e-001
  1.2256877e-001
  1.2461578e-001
  1.1950314e-001
  1.3138243e-001
  1.7121436e-001
  2.1993246e-001
  2.5779707e-001
  2.8963328e-001
  3.2261592e-001
  3.4293828e-001
  3.4035724e-001
  3.3571838e-001
  3.5458896e-001
  3.8747565e-001
  4.0381005e-001
  3.9420930e-001
  3.7286727e-001
  3.4735717e-001
  3.1148967e-001
  2.6389424e-001
  2.1412224e-001
  1.7259393e-001
  1.4485055e-001
  1.2822423e-001
  1.0890180e-001
  7.7223613e-002
  4.9703172e-002
  5.2582015e-002
  7.6957996e-002
  8.0673725e-002
  4.8421674e-002
  1.7184841e-002
  2.1315260e-002
  4.4346620e-002
  5.2158700e-002
  4.5252005e-002
  4.6161900e-002
  5.7270601e-002
  6.3776363e-002
  6.2963323e-002
  6.2111710e-002
  6.0039945e-002
  5.4464833e-002
  5.4091977e-002
  6.2483343e-002
  6.5770674e-002
  5.5876260e-002
  4.7405916e-002
  5.1609802e-002
  5.4396543e-002
  4.2158512e-002
  2.8297840e-002
  2.9928160e-002
  3.8491457e-002
  3.8980492e-002
  3.8404889e-002
  4.7976148e-002
  5.5060678e-002
  4.1734360e-002
  1.7704073e-002
  7.7876419e-003
  1.7184103e-002
  3.1853666e-002
  4.2110355e-002
  4.5391204e-002
  3.8057211e-002
  2.3984294e-002
  1.8700873e-002
  2.7514702e-002
  3.3902827e-002
  2.6015792e-002
  1.7420292e-002
  2.3300759e-002
  3.3914441e-002
  3.2562895e-002
  2.5215637e-002
  3.1926015e-002
  5.9126320e-002
  9.4887099e-002
  1.2122132e-001
  1.2357279e-001
  1.0382081e-001
  8.7816739e-002
  9.8133882e-002
  1.1776611e-001
  1.1125119e-001
  8.3810859e-002
  7.7882041e-002
  1.0122817e-001
  1.0777307e-001
  7.1755482e-002
  3.1094653e-002
  2.4874723e-002
  3.4935839e-002
  2.9402905e-002
  1.9516019e-002
  2.5495127e-002
  2.7231285e-002
  4.6406983e-003
 -1.1388813e-002
  4.2945343e-003
 -7.2475892e-004
 -7.6308868e-002
 -1.2332259e-001
  5.6760856e-002
  5.0204644e-001
  9.5063262e-001
  1.0555535e+000
  7.3919166e-001
  2.7290251e-001
 -9.6286968e-003
 -2.5578095e-002
  5.8332105e-002
  8.0288552e-002
  4.7688624e-002
  4.4786685e-002
  7.6317572e-002
  8.0043161e-002
  4.7670797e-002
  3.8513502e-002
  7.4658467e-002
  1.0612205e-001
  1.0004684e-001
  9.1048313e-002
  1.0899614e-001
  1.2168266e-001
  9.6533351e-002
  6.7399720e-002
  8.4541292e-002
  1.3470870e-001
  1.6713769e-001
  1.7456902e-001
  1.9381452e-001
  2.3905907e-001
  2.8454477e-001
  3.0989102e-001
  3.2134121e-001
  3.2719552e-001
  3.2561804e-001
  3.2026982e-001
  3.2281491e-001
  3.3572496e-001
  3.4771105e-001
  3.4534581e-001
  3.2047264e-001
  2.7469918e-001
  2.2471235e-001
  1.9008984e-001
  1.6819242e-001
  1.3813378e-001
  9.6253288e-002
  6.4373693e-002
  5.3443364e-002
  4.6896991e-002
  3.4658076e-002
  3.3799883e-002
  5.4528706e-002
  7.3144805e-002
  6.4243119e-002
  3.8241940e-002
  2.3017826e-002
  2.6961365e-002
  4.0807844e-002
  5.6639582e-002
  6.5482521e-002
  5.6493838e-002
  3.7854522e-002
  3.7010644e-002
  6.1668634e-002
  8.3770264e-002
  8.0916558e-002
  6.7741603e-002
  6.4681779e-002
  6.3690600e-002
  5.1944553e-002
  4.3415858e-002
  5.5013465e-002
  7.1739610e-002
  6.7996491e-002
  4.8499767e-002
  3.7884886e-002
  4.1646071e-002
  4.5303596e-002
  4.3004723e-002
  4.1705272e-002
  4.3401960e-002
  4.3678781e-002
  4.2684091e-002
  4.2868527e-002
  4.2875875e-002
  4.3123317e-002
  4.5849450e-002
  4.4126634e-002
  2.9246095e-002
  1.4705360e-002
  2.7743521e-002
  6.6483175e-002
  9.2729492e-002
  8.2027804e-002
  5.4131487e-002
  3.8047776e-002
  3.5680974e-002
  3.9374418e-002
  5.5362285e-002
  8.3727751e-002
  1.0002094e-001
  8.5368460e-002
  5.6864606e-002
  4.2952958e-002
  4.4458312e-002
  4.2950461e-002
  3.3943136e-002
  3.0763364e-002
  4.4895030e-002
  7.5703707e-002
  1.0925503e-001
  1.2269713e-001
  1.0758631e-001
  8.9823426e-002
  1.0044863e-001
  1.2693096e-001
  1.2936525e-001
  1.0714263e-001
  1.0196021e-001
  1.2260678e-001
  1.2168520e-001
  7.4078658e-002
  2.5249453e-002
  2.2370628e-002
  4.4664723e-002
  4.8728343e-002
  4.0532972e-002
  4.7744086e-002
  5.6791004e-002
  4.0672532e-002
  2.1363651e-002
  3.1604266e-002
  3.2055761e-002
 -4.1033904e-002
 -1.2711661e-001
 -3.4934036e-002
  3.3804884e-001
  8.1654906e-001
  1.0620614e+000
  8.9932112e-001
  4.8736225e-001
  1.4234865e-001
  2.7243726e-002
  5.7471466e-002
  8.1185326e-002
  6.4540786e-002
  6.4695150e-002
  9.5214118e-002
  1.0618645e-001
  7.9157321e-002
  5.7962811e-002
  7.1486057e-002
  9.1273613e-002
  8.9062777e-002
  8.1304469e-002
  8.8310128e-002
  9.6806909e-002
  9.4264156e-002
  9.8780927e-002
  1.2254573e-001
  1.4334258e-001
  1.4585612e-001
  1.5620911e-001
  1.9956416e-001
  2.5450182e-001
  2.8673585e-001
  3.0099669e-001
  3.2149258e-001
  3.4446732e-001
  3.4984106e-001
  3.4269403e-001
  3.4503823e-001
  3.5752649e-001
  3.6213446e-001
  3.5344812e-001
  3.3824055e-001
  3.1306394e-001
  2.6986146e-001
  2.1757334e-001
  1.7467551e-001
  1.4525334e-001
  1.2042991e-001
  9.6233083e-002
  7.4619293e-002
  5.5617702e-002
  4.1705668e-002
  3.9704900e-002
  4.7403803e-002
  5.0436777e-002
  4.1332388e-002
  2.7609974e-002
  1.5371304e-002
  4.0049517e-003
  2.0970929e-003
  2.3174082e-002
  5.6358869e-002
  6.8920417e-002
  5.1573251e-002
  3.4128633e-002
  4.0919179e-002
  5.7568403e-002
  5.9318997e-002
  4.6610150e-002
  3.3709079e-002
  2.5864988e-002
  2.5928065e-002
  4.0268094e-002
  6.0538820e-002
  6.3144309e-002
  4.3954972e-002
  2.9054172e-002
  3.3799925e-002
  3.7711989e-002
  2.0137852e-002
 -4.7810127e-003
 -1.1301169e-002
  1.7809618e-003
  1.9038570e-002
  3.1869061e-002
  3.5485879e-002
  2.3669858e-002
  4.1799085e-003
 -1.8628187e-003
  8.3941377e-003
  1.2528615e-002
  2.1930203e-003
  6.2751459e-004
  2.2154635e-002
  4.3822657e-002
  4.1102555e-002
  2.4883520e-002
  1.7441652e-002
  1.6688443e-002
  1.1379438e-002
  9.2464347e-003
  2.1160805e-002
  3.4940282e-002
  3.1851596e-002
  1.5313056e-002
  1.0311280e-003
 -6.9151608e-003
 -1.0586331e-002
 -4.9930184e-003
  1.0015608e-002
  1.9973672e-002
  1.5706068e-002
  8.1884657e-003
  9.4841446e-003
  1.6962907e-002
  2.9327429e-002
  5.5477810e-002
  9.1295556e-002
  1.1159512e-001
  1.0449742e-001
  9.1177261e-002
  9.1441416e-002
  9.2917138e-002
  7.7342830e-002
  5.5400415e-002
  4.8871599e-002
  5.5525444e-002
  5.8486630e-002
  5.6974759e-002
  6.1050994e-002
  6.4645773e-002
  4.9867240e-002
  1.6946049e-002
 -1.0049199e-002
 -1.1228457e-002
  6.3966989e-003
  1.8802875e-002
  1.2766035e-002
 -4.9708293e-003
 -3.1216351e-002
 -7.9131865e-002
 -1.2820106e-001
 -6.7022320e-002
  2.3089766e-001
  7.0953406e-001
  1.0696303e+000
  1.0206625e+000
  5.9981375e-001
  1.4748626e-001
 -5.4056195e-002
 -2.7765075e-002
  3.5270420e-002
  4.0744670e-002
  3.1601461e-002
  4.5999760e-002
  5.8971239e-002
  5.2917813e-002
  4.9527673e-002
  5.6449979e-002
  4.8465549e-002
  2.0059225e-002
  6.1263298e-003
  2.9076682e-002
  6.2656486e-002
  7.0885200e-002
  5.7756381e-002
  5.6116704e-002
  8.0916501e-002
  1.1425107e-001
  1.3629332e-001
  1.5599884e-001
  1.9784889e-001
  2.5921131e-001
  3.0072925e-001
  2.9521763e-001
  2.6991825e-001
  2.7241680e-001
  3.0415899e-001
  3.2306317e-001
  3.0988651e-001
  2.9113719e-001
  2.8817626e-001
  2.8460853e-001
  2.6140356e-001
  2.2823962e-001
  1.9822377e-001
  1.6250542e-001
  1.1358585e-001
  6.7919123e-002
  4.2440526e-002
  3.0319141e-002
  1.9263232e-002
  1.2209341e-002
  1.2374102e-002
  1.0475842e-002
  4.3898014e-003
  8.6811115e-003
  2.6806966e-002
  3.6585977e-002
  2.2205631e-002
  2.4599190e-005
 -5.7425519e-003
  5.6824309e-003
  2.0066473e-002
  2.9139608e-002
  3.0210104e-002
  2.3654119e-002
  2.0827310e-002
  3.3552227e-002
  4.8728559e-002
  3.9696236e-002
  1.0017304e-002
 -5.6205361e-003
  5.5296901e-003
  1.5567190e-002
  5.4957376e-003
 -3.6784484e-003
  8.3631508e-003
  2.4130598e-002
  1.9870792e-002
  5.7279567e-003
  5.0612940e-003
  1.6051457e-002
  2.1058159e-002
  1.5991683e-002
  6.8581708e-003
 -5.6468233e-003
 -1.7376945e-002
 -1.4634469e-002
  4.2591498e-003
  1.9544398e-002
  1.8969030e-002
  1.5968256e-002
  2.2292803e-002
  2.5328059e-002
  1.2702222e-002
 -1.9588140e-003
 -6.0743646e-005
  1.2780200e-002
  1.9399855e-002
  1.7578856e-002
  1.5086603e-002
  1.2369638e-002
  7.3930386e-003
  5.4585114e-003
  9.7821484e-003
  1.3416434e-002
  1.1478670e-002
  1.0883869e-002
  2.1254521e-002
  4.6271727e-002
  8.3214922e-002
  1.1644548e-001
  1.1838875e-001
  8.0837407e-002
  3.8306773e-002
  3.0565168e-002
  4.9648924e-002
  6.0076865e-002
  6.1201282e-002
  7.9405223e-002
  1.0267185e-001
  8.6251590e-002
  3.4612224e-002
  1.0751356e-002
  3.7962836e-002
  5.8239518e-002
  2.7446706e-002
 -1.1369364e-002
 -2.6963302e-003
  3.0171606e-002
  3.4549936e-002
  2.0141262e-002
  1.9026336e-002
 -7.9619123e-003
 -1.1093683e-001
 -1.9007747e-001
 -2.2305799e-002
  4.6263431e-001
  9.9505499e-001
  1.1682511e+000
  8.4879539e-001
  3.1776069e-001
 -2.8327394e-002
 -6.1142309e-002
  4.2068964e-002
  8.3429737e-002
  5.3195845e-002
  4.1992103e-002
  6.4972945e-002
  6.6116831e-002
  3.8841510e-002
  3.4388488e-002
  6.0753386e-002
  6.7732090e-002
  4.3152312e-002
  3.9373064e-002
  7.9371327e-002
  1.1334875e-001
  1.0560267e-001
  9.5559916e-002
  1.2379436e-001
  1.5650072e-001
  1.4516666e-001
  1.2048652e-001
  1.5943814e-001
  2.7569416e-001
  4.0023548e-001
  4.6779826e-001
  4.7805040e-001
  4.6868677e-001
  4.6404508e-001
  4.6092411e-001
  4.4487815e-001
  4.1027555e-001
  3.6811553e-001
  3.3312418e-001
  3.0533731e-001
  2.7577567e-001
  2.4724885e-001
  2.3004112e-001
  2.1829170e-001
  1.9619091e-001
  1.6990894e-001
  1.6436801e-001
  1.8207556e-001
  1.9533340e-001
  1.8848031e-001
  1.7725222e-001
  1.7499285e-001
  1.7128530e-001
  1.5903263e-001
  1.5271702e-001
  1.6234612e-001
  1.7550179e-001
  1.8095320e-001
  1.8496933e-001
  1.9054657e-001
  1.8724999e-001
  1.7542135e-001
  1.7224561e-001
  1.7995147e-001
  1.7779029e-001
  1.6061316e-001
  1.5355376e-001
  1.6933096e-001
  1.8247828e-001
  1.6950800e-001
  1.4699168e-001
  1.4411304e-001
  1.6037085e-001
  1.7512975e-001
  1.7932473e-001
  1.7548344e-001
  1.6440895e-001
  1.5239659e-001
  1.5494571e-001
  1.7414507e-001
  1.8740325e-001
  1.7527421e-001
  1.4688531e-001
  1.2521329e-001
  1.2173456e-001
  1.3478047e-001
  1.5551698e-001
  1.6712511e-001
  1.5694792e-001
  1.3700536e-001
  1.3280784e-001
  1.4677730e-001
  1.5566148e-001
  1.4875085e-001
  1.4225835e-001
  1.4975323e-001
  1.6614034e-001
  1.8745519e-001
  2.1672275e-001
  2.4252159e-001
  2.4324791e-001
  2.2214450e-001
  2.0691970e-001
  2.0659697e-001
  2.0326452e-001
  1.9435354e-001
  2.0141431e-001
  2.2244616e-001
  2.2005397e-001
  1.8047321e-001
  1.4279077e-001
  1.4049486e-001
  1.5228304e-001
  1.4434017e-001
  1.2593023e-001
  1.2357858e-001
  1.3033671e-001
  1.2585651e-001
  1.2315624e-001
  1.4208310e-001
  1.4783902e-001
  8.1617181e-002
 -2.3713775e-002
 -1.0375385e-002
  2.5846277e-001
  7.1001859e-001
  1.0625548e+000
  1.0625255e+000
  7.2739342e-001
  3.2413344e-001
  1.0141427e-001
  8.0681809e-002
  1.2406619e-001
  1.3950593e-001
  1.4543512e-001
  1.6878688e-001
  1.8249369e-001
  1.6729206e-001
  1.5863431e-001
  1.8855482e-001
  2.2966499e-001
  2.3827889e-001
  2.1820976e-001
  2.0434882e-001
  2.0960224e-001
  2.2160873e-001
  2.3151237e-001
  2.3716396e-001
  2.3448971e-001
  2.2968869e-001
  2.4520718e-001
  2.9352871e-001
  3.5734683e-001
  4.0912995e-001
  4.3640921e-001
  4.4015337e-001
  4.2823333e-001
  4.1909486e-001
  4.3022985e-001
  4.5400416e-001
  4.6540421e-001
  4.5793714e-001
  4.4685692e-001
  4.3503037e-001
  4.0862290e-001
  3.7244529e-001
  3.5165732e-001
  3.4561382e-001
  3.1840901e-001
  2.5465646e-001
  1.8970324e-001
  1.6169115e-001
  1.6472705e-001
  1.7291739e-001
  1.8035435e-001
  1.8982625e-001
  1.8832164e-001
  1.6566773e-001
  1.4131075e-001
  1.4443600e-001
  1.7604552e-001
  2.0979720e-001
  2.2216172e-001
  2.0908047e-001
  1.8372028e-001
  1.6774830e-001
  1.7304886e-001
  1.8592350e-001
  1.8282954e-001
  1.6358433e-001
  1.5130641e-001
  1.5911304e-001
  1.7803980e-001
  1.9728540e-001
  2.1097640e-001
  2.0598234e-001
  1.7420832e-001
  1.3902209e-001
  1.3558469e-001
  1.5958038e-001
  1.7047982e-001
  1.5256695e-001
  1.3433524e-001
  1.3612276e-001
  1.3935082e-001
  1.2669038e-001
  1.1502318e-001
  1.2384078e-001
  1.4163842e-001
  1.4807814e-001
  1.4347764e-001
  1.3534840e-001
  1.2289350e-001
  1.1658685e-001
  1.4402887e-001
  2.0768554e-001
  2.5984070e-001
  2.5196604e-001
  1.9694837e-001
  1.5489820e-001
  1.6322299e-001
  2.0204708e-001
  2.2597132e-001
  2.1351777e-001
  1.8291147e-001
  1.6601520e-001
  1.7043252e-001
  1.7301248e-001
  1.5387367e-001
  1.2382619e-001
  1.0584405e-001
  1.0346961e-001
  1.0523586e-001
  1.0607160e-001
  1.0489872e-001
  9.8367370e-002
  9.5431045e-002
  1.0819216e-001
  1.0453110e-001
  2.6045845e-002
 -8.4004844e-002
 -2.9466164e-002
  3.3819551e-001
  8.6471332e-001
  1.1647289e+000
  1.0106547e+000
  5.7008956e-001
  1.9716309e-001
  6.5134434e-002
  8.3667046e-002
  1.0944413e-001
  1.1165790e-001
  1.2592431e-001
  1.5210071e-001
  1.5668143e-001
  1.3421898e-001
  1.1578886e-001
  1.2265725e-001
  1.4009945e-001
  1.4278151e-001
  1.3111463e-001
  1.2870619e-001
  1.4587784e-001
  1.6360165e-001
  1.6395926e-001
  1.5911130e-001
  1.7037423e-001
  1.9434929e-001
  2.1748145e-001
  2.5052876e-001
  3.1126534e-001
  3.7885009e-001
  4.0769413e-001
  3.9101695e-001
  3.7104358e-001
  3.7768753e-001
  3.9535849e-001
  4.0168459e-001
  4.0027303e-001
  3.9820154e-001
  3.8645468e-001
  3.6289700e-001
  3.4393038e-001
  3.3275169e-001
  3.0382333e-001
  2.4058215e-001
  1.6576944e-001
  1.1462664e-001
  9.6998650e-002
  1.0066120e-001
  1.1156143e-001
  1.1662772e-001
  1.0682940e-001
  9.1443502e-002
  9.1477742e-002
  1.0879908e-001
  1.2073664e-001
  1.1324113e-001
  9.8280356e-002
  9.0548277e-002
  8.9289754e-002
  9.1390378e-002
  1.0018049e-001
  1.1270849e-001
  1.1854707e-001
  1.1758883e-001
  1.1913374e-001
  1.2123552e-001
  1.1414907e-001
  1.0407135e-001
  1.0589705e-001
  1.1226172e-001
  1.0127686e-001
  7.7066951e-002
  6.8055252e-002
  7.9980443e-002
  8.7151547e-002
  7.8350245e-002
  7.3538243e-002
  8.2810228e-002
  8.6339065e-002
  7.2607470e-002
  6.2102710e-002
  7.2146712e-002
  8.7474081e-002
  8.6625275e-002
  7.3049602e-002
  6.1593745e-002
  5.6278573e-002
  5.7107737e-002
  6.7523410e-002
  8.1519616e-002
  8.3978042e-002
  7.4599831e-002
  7.0508247e-002
  7.7558202e-002
  8.2695953e-002
  8.0558554e-002
  8.0110735e-002
  7.8836241e-002
  6.2565476e-002
  4.1042568e-002
  4.9195504e-002
  9.6437066e-002
  1.4573254e-001
  1.6213957e-001
  1.5419490e-001
  1.4731268e-001
  1.4365692e-001
  1.3353262e-001
  1.2527693e-001
  1.3521742e-001
  1.5686334e-001
  1.6231385e-001
  1.3399747e-001
  8.5123238e-002
  4.8875567e-002
  4.7567729e-002
  6.9094889e-002
  7.9993835e-002
  6.6792953e-002
  4.9638182e-002
  4.5842706e-002
  4.5205587e-002
  3.9478562e-002
  4.0301687e-002
  3.5261249e-002
 -2.3863910e-002
 -1.1901560e-001
 -9.1037072e-002
  2.1755369e-001
  7.2015111e-001
  1.0850966e+000
  1.0453066e+000
  6.6356532e-001
  2.4268566e-001
  1.9219379e-002
  1.0893325e-004
  5.6528722e-002
  8.9167362e-002
  8.5928221e-002
  7.7180044e-002
  8.1346640e-002
  9.2753824e-002
  1.0208572e-001
  1.1158758e-001
  1.2361913e-001
  1.2706722e-001
  1.1323635e-001
  9.7900439e-002
  1.0485386e-001
  1.3096300e-001
  1.5117816e-001
  1.5522207e-001
  1.5430984e-001
  1.5639870e-001
  1.6455733e-001
  1.9491438e-001
  2.5924925e-001
  3.2884250e-001
  3.5513868e-001
  3.3399764e-001
  3.1259206e-001
  3.2355920e-001
  3.4986584e-001
  3.6640919e-001
  3.7646086e-001
  3.8726212e-001
  3.8456337e-001
  3.5610041e-001
  3.1491857e-001
  2.7838876e-001
  2.4559034e-001
  2.1197306e-001
  1.8418408e-001
  1.6410390e-001
  1.3926287e-001
  1.0525671e-001
  7.9160079e-002
  7.5883125e-002
  8.6635371e-002
  9.2222933e-002
  8.4132176e-002
  6.6082795e-002
  4.9254886e-002
  4.8640507e-002
  6.8038338e-002
  8.9280642e-002
  9.4128256e-002
  9.1219229e-002
  9.8415548e-002
  1.0747819e-001
  9.7841781e-002
  7.9089528e-002
  8.0909838e-002
  1.0083956e-001
  1.0372513e-001
  7.9862558e-002
  6.2458424e-002
  7.4489126e-002
  9.6218309e-002
  1.0194422e-001
  9.4891615e-002
  8.7549553e-002
  7.8102575e-002
  6.5612227e-002
  6.1959378e-002
  7.0010276e-002
  7.2722091e-002
  6.0495603e-002
  4.9049217e-002
  5.5454640e-002
  7.4261687e-002
  8.8683024e-002
  8.9088648e-002
  7.4486289e-002
  5.3568478e-002
  4.6517886e-002
  6.4745373e-002
  8.8325941e-002
  8.7643570e-002
  6.6296538e-002
  5.3853135e-002
  5.6889334e-002
  5.2018017e-002
  3.2243619e-002
  2.3277773e-002
  4.1251175e-002
  6.6349137e-002
  7.3968669e-002
  6.5973078e-002
  5.7188469e-002
  5.3470179e-002
  5.4603290e-002
  5.9461433e-002
  6.1486358e-002
  5.7826219e-002
  6.3610561e-002
  9.4199646e-002
  1.3474038e-001
  1.5404634e-001
  1.4653438e-001
  1.3133834e-001
  1.1525693e-001
  9.3030263e-002
  8.0069676e-002
  9.9707458e-002
  1.3399243e-001
  1.3455654e-001
  9.3578393e-002
  5.7071597e-002
  5.1951115e-002
  4.9259299e-002
  2.4954068e-002
  8.5229909e-003
  3.2139932e-002
  6.9506818e-002
  7.2780085e-002
  4.6363138e-002
  3.2088405e-002
  2.9185524e-002
 -1.2817755e-002
 -9.4785071e-002
 -9.9419880e-002
  1.1790978e-001
  5.4374029e-001
  9.4191126e-001
  1.0315440e+000
  7.5289345e-001
  3.2774957e-001
  3.6692029e-002
 -3.0737231e-002
  1.8018642e-002
  6.1932205e-002
  7.7847822e-002
  8.8914758e-002
  9.4333541e-002
  8.3648832e-002
  6.7599346e-002
  5.9487346e-002
  5.5370222e-002
  5.3254631e-002
  6.3777821e-002
  8.6040037e-002
  1.0089394e-001
  1.0229070e-001
  1.0765909e-001
  1.2448907e-001
  1.3543867e-001
  1.3153737e-001
  1.3368710e-001
  1.6463976e-001
  2.1988581e-001
  2.7794278e-001
  3.2067580e-001
  3.3709646e-001
  3.2888708e-001
  3.1833600e-001
  3.2953257e-001
  3.5756241e-001
  3.7649511e-001
  3.7580457e-001
  3.6357920e-001
  3.3872149e-001
  2.9386171e-001
  2.4505582e-001
  2.2068237e-001
  2.1574517e-001
  1.9455885e-001
  1.4666678e-001
  1.0231800e-001
  8.1579588e-002
  6.6982042e-002
  4.3370993e-002
  2.8046180e-002
  3.7813443e-002
  5.5242881e-002
  5.3370717e-002
  3.4312216e-002
  2.1797750e-002
  2.8921095e-002
  4.8457780e-002
  6.4234651e-002
  6.3242443e-002
  4.7417922e-002
  3.6413879e-002
  4.6035061e-002
  6.6556481e-002
  7.8321267e-002
  8.1339644e-002
  8.6905517e-002
  8.8828168e-002
  7.3606279e-002
  5.3631446e-002
  5.5282137e-002
  7.4171099e-002
  7.7586778e-002
  5.5194569e-002
  3.2622814e-002
  2.8824662e-002
  3.3922072e-002
  3.6683450e-002
  4.0569593e-002
  4.3300496e-002
  3.2836228e-002
  1.4456937e-002
  1.1349196e-002
  2.7037541e-002
  3.6396429e-002
  2.5543054e-002
  1.2317221e-002
  1.4386981e-002
  2.3531335e-002
  2.5579634e-002
  2.2952058e-002
  2.3968901e-002
  2.8586189e-002
  3.5222284e-002
  4.6013550e-002
  5.9545773e-002
  7.2608266e-002
  8.8280168e-002
  1.0555659e-001
  1.0758995e-001
  8.3560834e-002
  5.5268765e-002
  5.4116230e-002
  7.7241150e-002
  9.5963124e-002
  1.0057384e-001
  1.0221246e-001
  9.6693708e-002
  6.7668362e-002
  2.6026902e-002
  4.5108508e-003
  7.9785497e-003
  8.3236149e-003
 -5.7187874e-003
 -1.4127124e-002
 -7.6214055e-003
 -2.2300011e-003
 -3.9428595e-003
 -4.1853140e-003
 -1.8944100e-002
 -7.1727746e-002
 -1.0695963e-001
  1.5584005e-002
  3.6544780e-001
  7.9434981e-001
  1.0143285e+000
  8.5724823e-001
  4.4034628e-001
  5.7075482e-002
 -8.9740039e-002
 -3.5649522e-002
  4.8783383e-002
  6.4232925e-002
  4.8955385e-002
  6.4188777e-002
  9.1351906e-002
  8.0761166e-002
  4.5581167e-002
  4.0027006e-002
  6.7948910e-002
  8.0779470e-002
  6.1711133e-002
  4.9012778e-002
  6.7965679e-002
  9.5627780e-002
  1.0846730e-001
  1.1651465e-001
  1.3181247e-001
  1.4596009e-001
  1.5933799e-001
  1.9372420e-001
  2.5274990e-001
  3.0260355e-001
  3.1550841e-001
  3.0592993e-001
  3.0321103e-001
  3.1244603e-001
  3.2237044e-001
  3.3099372e-001
  3.4265271e-001
  3.5253146e-001
  3.4878877e-001
  3.2265927e-001
  2.7317881e-001
  2.1314311e-001
  1.6730714e-001
  1.4753608e-001
  1.3439955e-001
  1.0401046e-001
  6.6102595e-002
  4.9230144e-002
  5.4418472e-002
  5.4760116e-002
  3.8758181e-002
  2.1615076e-002
  1.3122162e-002
  7.1997775e-003
  5.7858242e-003
  2.0147034e-002
  4.3495826e-002
  5.3645389e-002
  4.8463785e-002
  4.8892849e-002
  6.1837127e-002
  7.0209460e-002
  6.5677676e-002
  6.1145757e-002
  6.3757955e-002
  6.4371040e-002
  6.0191712e-002
  5.9939877e-002
  6.1464073e-002
  5.2627550e-002
  3.9464262e-002
  4.3508930e-002
  6.3871679e-002
  7.1512406e-002
  5.1159486e-002
  2.3285165e-002
  1.5045923e-002
  3.0908317e-002
  5.6868297e-002
  7.2275356e-002
  5.7151567e-002
  1.3216639e-002
 -2.2091944e-002
 -1.0141583e-002
  3.8797842e-002
  7.6460727e-002
  7.6326296e-002
  5.3413289e-002
  2.8519019e-002
  1.0086146e-002
  1.3125626e-002
  5.3978508e-002
  1.1373234e-001
  1.4375098e-001
  1.2516857e-001
  9.3319928e-002
  8.7109099e-002
  1.0260800e-001
  1.1521293e-001
  1.2106038e-001
  1.3116994e-001
  1.4031163e-001
  1.2747918e-001
  8.6035825e-002
  3.8345351e-002
  1.5107425e-002
  2.2615664e-002
  3.5891348e-002
  3.0478992e-002
  1.4614249e-002
  1.3359738e-002
  2.6998703e-002
  3.3789253e-002
  2.9344311e-002
  1.9193474e-002
 -2.3129346e-002
 -1.1018127e-001
 -1.2616062e-001
  1.2808792e-001
  6.6515999e-001
  1.1543591e+000
  1.1907323e+000
  7.3698463e-001
  1.7832407e-001
 -9.5985861e-002
 -5.6966891e-002
  6.0676083e-002
  9.1629208e-002
  6.2047898e-002
  4.7517035e-002
  5.1854354e-002
  4.6896488e-002
  4.0194644e-002
  5.3976895e-002
  7.7508270e-002
  8.0556666e-002
  5.9290359e-002
  4.1207037e-002
  4.7844863e-002
  7.2233841e-002
  9.6796508e-002
  1.1688158e-001
  1.3397156e-001
  1.3921612e-001
  1.2895863e-001
  1.3239538e-001
  1.8804047e-001
  2.8090455e-001
  3.4046495e-001
  3.2749217e-001
  2.8996757e-001
  2.9654351e-001
  3.4265725e-001
  3.6856569e-001
  3.5073987e-001
  3.2217436e-001
  3.0882997e-001
  2.9884655e-001
  2.7941023e-001
  2.5752080e-001
  2.3352707e-001
  1.9307385e-001
  1.3739199e-001
  8.9392079e-002
  6.0327910e-002
  3.9406142e-002
  2.1966017e-002
  1.7433413e-002
  2.3203850e-002
  2.0863749e-002
  6.1933148e-003
 -3.8538648e-003
 -7.4516558e-005
  7.9110275e-003
  1.2499596e-002
  1.5223964e-002
  1.2601904e-002
  1.1846221e-003
 -4.5057868e-003
  1.2487582e-002
  3.9201476e-002
  4.5353877e-002
  2.7487235e-002
  1.0263270e-002
  5.8607017e-003
  5.2596653e-003
  8.1609331e-003
  2.4303146e-002
  4.2263910e-002
  3.5057143e-002
  4.3320117e-003
 -1.6449056e-002
 -1.2136620e-002
 -5.3134960e-003
 -1.4782608e-002
 -2.7372999e-002
 -2.5555662e-002
 -1.5021439e-002
 -9.1280536e-003
 -8.2563081e-003
 -8.2895029e-003
 -1.1714528e-002
 -1.9779542e-002
 -2.6960588e-002
 -2.7142022e-002
 -1.3620278e-002
  2.1277036e-002
  6.8489817e-002
  9.3829029e-002
  7.3684963e-002
  3.2930538e-002
  1.8817571e-002
  4.1848178e-002
  7.1906605e-002
  8.7082840e-002
  9.1230701e-002
  8.4952850e-002
  5.8021085e-002
  1.7584067e-002
 -9.9805890e-003
 -1.5199626e-002
 -1.5576069e-002
 -2.2775216e-002
 -2.8041071e-002
 -2.7582708e-002
 -3.3215597e-002
 -4.6159451e-002
 -4.7183489e-002
 -3.0783223e-002
 -3.0478291e-002
 -8.4348453e-002
 -1.6742287e-001
 -1.6659920e-001
  4.6269241e-002
  4.6985970e-001
  8.9441016e-001
  1.0285960e+000
  7.6452578e-001
  2.9926398e-001
 -5.0868734e-002
 -1.4078566e-001
 -6.5670458e-002
  1.6529310e-002
  4.4968533e-002
  4.0925193e-002
  2.7519249e-002
  1.4616269e-002
  1.6258356e-002
  3.5170529e-002
  4.8890249e-002
  3.9309089e-002
  2.0328673e-002
  1.7451849e-002
  3.5329495e-002
  5.9988334e-002
  7.9273319e-002
  9.0054087e-002
  9.6499022e-002
  1.0753805e-001
  1.2762533e-001
  1.5217141e-001
  1.8205515e-001
  2.3090602e-001
  2.9855226e-001
  3.5062865e-001
  3.5341032e-001
  3.2163837e-001
  3.0193248e-001
  3.1355495e-001
  3.3574217e-001
  3.4874790e-001
  3.5289135e-001
  3.4602584e-001
  3.1619201e-001
  2.6459127e-001
  2.1035215e-001
  1.6645605e-001
  1.3060034e-001
  9.9452707e-002
  7.1909236e-002
  4.2649385e-002
  1.3430726e-002
  2.0911373e-003
  1.6389541e-002
  3.1040279e-002
  1.9875105e-002
 -1.9720207e-003
 -2.0987668e-003
  1.5318948e-002
  1.9575324e-002
  8.2791835e-003
  7.3129412e-003
  1.8786614e-002
  1.6669746e-002
 -9.0026077e-004
 -1.8176733e-003
  2.5430489e-002
  4.9194830e-002
  4.4134056e-002
  2.7691933e-002
  2.7129443e-002
  3.9429772e-002
  4.4901727e-002
  3.9107168e-002
  3.2345958e-002
  3.1242032e-002
  3.3486668e-002
  3.1598739e-002
  1.7997160e-002
 -3.7797080e-003
 -1.6208348e-002
 -9.7675945e-003
 -4.2144556e-004
 -7.3328661e-003
 -2.2889845e-002
 -2.7308539e-002
 -2.2381238e-002
 -2.3006590e-002
 -2.3853497e-002
 -6.0911656e-003
  2.6942427e-002
  5.2368181e-002
  6.4147151e-002
  7.5807247e-002
  8.7571425e-002
  8.3138158e-002
  6.3162578e-002
  5.1951384e-002
  6.2662626e-002
  7.8915762e-002
  7.7774125e-002
  5.3314724e-002
  1.5025359e-002
 -2.1268010e-002
 -4.1040559e-002
 -4.2537402e-002
 -3.7064827e-002
 -3.0859589e-002
 -2.0682520e-002
 -1.3631134e-002
 -2.4049278e-002
 -3.9703424e-002
 -3.3093971e-002
 -2.8027875e-002
 -9.0535164e-002
 -1.9310725e-001
 -1.5049542e-001
  1.9399098e-001
  7.1870465e-001
  1.0679076e+000
  9.9325401e-001
  5.9176228e-001
  1.7221431e-001
 -5.0300660e-002
 -8.1691867e-002
 -3.8171202e-002
 -1.2030013e-003
  1.5383019e-002
  2.1965154e-002
  2.0772965e-002
  9.5789954e-003
 -4.3843692e-003
 -6.9246311e-003
  5.9696918e-003
  2.2953008e-002
  3.4483169e-002
  4.3950857e-002
  5.3663880e-002
  5.5207465e-002
  4.7576207e-002
  4.8523780e-002
  7.0161760e-002
  1.0020643e-001
  1.2739362e-001
  1.6506859e-001
  2.2303846e-001
  2.7641611e-001
  2.9583893e-001
  2.9251298e-001
  2.9731529e-001
  3.0906597e-001
  3.0323750e-001
  2.8232817e-001
  2.7502899e-001
  2.8757773e-001
  2.9499678e-001
  2.8120115e-001
  2.5270076e-001
  2.1358059e-001
  1.6289892e-001
  1.1685808e-001
  9.6682663e-002
  9.1456097e-002
  6.8057014e-002
  2.2357851e-002
 -1.2904811e-002
 -1.6316266e-002
 -1.7131366e-003
  1.1627592e-002
  2.1325129e-002
  2.6934266e-002
  2.1690868e-002
  8.8993746e-003
  3.2097303e-003
  8.1420214e-003
  1.1993549e-002
  8.9737658e-003
  5.3119230e-003
  4.6378287e-003
  6.1194903e-003
  1.3797741e-002
  2.7851205e-002
  3.3103306e-002
  1.8506737e-002
 -5.1092293e-004
 -3.6026684e-003
  1.2499200e-003
 -5.6332593e-003
 -1.6914533e-002
 -9.7824609e-003
  1.1164370e-002
  1.8609745e-002
  7.0549828e-003
 -2.7131335e-003
 -2.3720120e-003
 -4.0054270e-003
 -8.3338336e-003
 -6.3843160e-004
  1.6332180e-002
  1.8731498e-002
 -5.3501991e-004
 -1.8886536e-002
 -1.8012469e-002
 -6.4140973e-003
  2.0111921e-005
 -9.3846990e-004
 -3.2597773e-003
 -2.9365102e-003
  5.3705116e-004
  1.1454525e-003
 -1.1110717e-002
 -3.2594657e-002
 -4.2113626e-002
 -3.0316014e-002
 -1.6726034e-002
 -1.6296171e-002
 -8.9721725e-003
  2.7441682e-002
  7.2114384e-002
  8.5714510e-002
  6.8070836e-002
  5.3072196e-002
  5.4203740e-002
  5.4443872e-002
  4.5847717e-002
  3.9299129e-002
  3.4853544e-002
  2.0189110e-002
  7.4944326e-004
 -4.6924372e-003
 -1.4500000e-003
 -1.5090569e-002
 -4.3906556e-002
 -5.2084661e-002
 -2.3425026e-002
  9.9986792e-003
  1.1278473e-002
 -1.2942690e-002
 -2.9871661e-002
 -3.4967495e-002
 -6.3066016e-002
 -1.2756562e-001
 -1.5027770e-001
  1.0345247e-002
  4.0387354e-001
  8.5432977e-001
  1.0524880e+000
  8.4210412e-001
  3.8851445e-001
  1.4423804e-002
 -1.0867790e-001
 -5.8867304e-002
  4.9841759e-003
  1.7739158e-002
  6.6110784e-003
  2.6884303e-003
  7.3800246e-003
  1.2290824e-002
  1.1724359e-002
  5.3902511e-003
  3.9027170e-003
  1.8256818e-002
  3.8519369e-002
  4.2156599e-002
  2.7699155e-002
  1.9128682e-002
  3.2296619e-002
  5.7501376e-002
  8.0329594e-002
  1.0137458e-001
  1.3013518e-001
  1.7222241e-001
  2.2267356e-001
  2.6239782e-001
  2.7045423e-001
  2.5363808e-001
  2.4964792e-001
  2.8102627e-001
  3.2096109e-001
  3.2888637e-001
  3.0473364e-001
  2.7910927e-001
  2.6328673e-001
  2.4227011e-001
  2.0909656e-001
  1.7276254e-001
  1.3619796e-001
  9.6206420e-002
  6.1505481e-002
  4.3538119e-002
  3.4381877e-002
  1.9128147e-002
  1.8238424e-003
 -6.9359486e-003
 -1.5950297e-002
 -3.6352680e-002
 -5.1117891e-002
 -3.6881815e-002
 -7.0118395e-003
  3.8478513e-003
 -8.3406217e-003
 -1.7632754e-002
 -1.5126426e-002
 -1.5799704e-002
 -2.0275204e-002
 -1.0705392e-002
  1.0929446e-002
  1.8359410e-002
  3.5239355e-003
 -9.8266194e-003
 -5.0769787e-003
  4.0723105e-003
  4.1849150e-004
 -1.1336552e-002
 -1.7370120e-002
 -1.4644982e-002
 -9.9020355e-003
 -1.1833896e-002
 -2.6183747e-002
 -4.6947982e-002
 -5.6252313e-002
 -4.5658683e-002
 -2.9835827e-002
 -2.5528925e-002
 -2.9184657e-002
 -3.1408478e-002
 -3.7260801e-002
 -5.1376464e-002
 -6.0044228e-002
 -5.1954027e-002
 -3.9209846e-002
 -3.2228612e-002
 -1.4437747e-002
  2.6945259e-002
  6.5736905e-002
  6.9546583e-002
  5.0314231e-002
  4.2170413e-002
  4.4510401e-002
  3.1655406e-002
  7.5986252e-003
  2.1411273e-003
  1.6241311e-002
  1.9168713e-002
  1.4076602e-003
 -1.5669461e-002
 -2.6209763e-002
 -4.7897163e-002
 -7.4668285e-002
 -7.0987204e-002
 -3.2572251e-002
 -7.3182721e-003
 -2.7087167e-002
 -5.8495039e-002
 -6.2194371e-002
 -7.0893142e-002
 -1.4533050e-001
 -2.4272598e-001
 -1.8992186e-001
  1.4399388e-001
  6.4255437e-001
  9.7205835e-001
  8.7930554e-001
  4.5128741e-001
  2.7482810e-002
 -1.4441971e-001
 -1.0737135e-001
 -4.9178899e-002
 -5.4845580e-002
 -7.0850560e-002
 -4.7660232e-002
 -1.1332364e-002
  1.8430280e-003
 -1.3106591e-003
 -2.6289147e-003
 -3.1493390e-003
 -3.2111080e-003
  7.4807982e-003
  2.5224716e-002
  3.0869658e-002
  2.3480698e-002
  2.5461108e-002
  4.5790179e-002
  6.6771663e-002
  7.6477887e-002
  8.9381666e-002
  1.2477728e-001
  1.8204852e-001
  2.4194194e-001
  2.7965734e-001
  2.8122195e-001
  2.6223071e-001
  2.6076319e-001
  2.9251563e-001
  3.2489363e-001
  3.1815336e-001
  2.7838290e-001
  2.4238618e-001
  2.2334255e-001
  2.0379275e-001
  1.7350584e-001
  1.4039370e-001
  1.0745995e-001
  6.9828798e-002
  3.3335195e-002
  9.5932360e-003
 -4.4529310e-003
 -1.8234430e-002
 -2.5736781e-002
 -1.7159885e-002
 -3.8732168e-003
 -4.4785339e-003
 -1.3725450e-002
 -1.2765603e-002
 -2.4800972e-003
  1.1680134e-003
 -3.1847376e-003
 -4.8698257e-003
 -4.0755261e-003
 -3.8723832e-003
  8.8019373e-003
  4.1355272e-002
  6.6038710e-002
  5.0119776e-002
  9.5089292e-003
 -6.4270227e-003
  1.7001376e-002
  4.3691874e-002
  4.2042399e-002
  2.1363271e-002
  5.2496304e-003
 -7.4661592e-004
 -2.9597178e-003
 -3.0430415e-003
  1.2703218e-003
  1.0856792e-002
  2.3710400e-002
  3.0745023e-002
  2.0034829e-002
 -3.8332750e-003
 -1.7070061e-002
 -7.7479175e-003
  6.0454873e-003
  5.9596719e-003
  1.1958973e-003
  4.4466731e-003
  3.2590823e-003
 -1.3602293e-002
 -2.1652816e-002
  9.3451965e-003
  6.3662097e-002
  9.6538011e-002
  9.5582903e-002
  8.7829993e-002
  8.9450014e-002
  8.6393505e-002
  6.8450570e-002
  4.9640708e-002
  4.5943083e-002
  5.5114520e-002
  6.4497930e-002
  6.3624005e-002
  4.9069463e-002
  2.8721570e-002
  1.6082218e-002
  1.1960256e-002
  4.6076124e-003
 -5.1327306e-003
 -1.8788471e-003
  1.1369724e-002
  1.0817764e-002
 -3.5691340e-003
 -6.3258070e-003
 -1.2881425e-002
 -8.0812460e-002
 -1.8235545e-001
 -1.3891852e-001
  2.0052829e-001
  7.1466102e-001
  1.0509814e+000
  9.6385264e-001
  5.5603165e-001
  1.4183215e-001
 -5.6987503e-002
 -4.8683285e-002
  1.5749474e-002
  2.2908948e-002
 -8.2923325e-003
  4.1952437e-003
  6.4100570e-002
  8.3443327e-002
  2.9449616e-002
 -6.3819357e-003
  4.3050201e-002
  9.5923840e-002
  5.8576470e-002
  9.5814737e-004
  4.1499055e-002
  1.2581261e-001
  1.1294584e-001
  4.0754236e-002
  7.5879033e-002
  2.0168307e-001
  2.1939683e-001
  1.1373887e-001
  1.2834654e-001
  3.4237772e-001
  4.5611074e-001
  2.2575141e-001
 -1.1912526e-001
 -1.8509619e-001
  1.4438328e-002
  1.2557672e-001
  1.3113781e-002
 -9.2989742e-002
 -2.6198905e-002
  7.0687710e-002
  3.4897622e-002
 -4.9469979e-002
 -3.4397457e-002
  3.7094064e-002
  3.6228914e-002
 -2.2468649e-002
 -3.0637932e-002
  1.6519128e-002
  3.0688852e-002
 -5.2240665e-003
 -2.1515499e-002
  6.0135042e-003
  2.4400959e-002
  6.1584008e-003
 -1.0600083e-002
  2.0687161e-003
  1.9246623e-002
  1.4706404e-002
  6.3695662e-004
 -2.9040599e-003
 -3.3742350e-004
